Wavelength,Reflectance
/***,***/
346.0,36.73
347.0,35.63
348.0,34.63
349.0,33.70
350.0,32.85
351.0,32.06
352.0,31.32
353.0,30.64
354.0,30.00
355.0,29.41
356.0,28.85
357.0,28.36
358.0,27.90
359.0,27.46
360.0,27.06
361.0,26.67
362.0,26.31
363.0,25.96
364.0,25.63
365.0,25.32
366.0,25.03
367.0,24.38
368.0,23.78
369.0,23.23
370.0,22.71
371.0,22.22
372.0,21.76
373.0,21.33
374.0,20.93
375.0,20.54
376.0,20.18
377.0,19.70
378.0,19.25
379.0,18.82
380.0,18.41
381.0,18.01
382.0,17.64
383.0,17.28
384.0,16.93
385.0,16.60
386.0,16.29
387.0,16.28
388.0,16.28
389.0,16.27
390.0,16.27
391.0,16.26
392.0,16.26
393.0,16.26
394.0,16.25
395.0,16.25
396.0,16.25
397.0,15.95
398.0,15.66
399.0,15.39
400.0,15.13
401.0,14.88
402.0,14.64
403.0,14.40
404.0,14.18
405.0,13.97
406.0,13.77
407.0,13.78
408.0,13.80
409.0,13.81
410.0,13.83
411.0,13.84
412.0,13.85
413.0,13.86
414.0,13.88
415.0,13.89
416.0,13.90
417.0,13.87
418.0,13.85
419.0,13.82
420.0,13.80
421.0,13.77
422.0,13.75
423.0,13.73
424.0,13.71
425.0,13.69
426.0,13.66
427.0,13.59
428.0,13.52
429.0,13.45
430.0,13.38
431.0,13.32
432.0,13.25
433.0,13.20
434.0,13.14
435.0,13.09
436.0,13.03
437.0,13.12
438.0,13.20
439.0,13.27
440.0,13.35
441.0,13.42
442.0,13.48
443.0,13.55
444.0,13.62
445.0,13.68
446.0,13.74
447.0,13.84
448.0,13.95
449.0,14.05
450.0,14.14
451.0,14.24
452.0,14.33
453.0,14.41
454.0,14.50
455.0,14.58
456.0,14.66
457.0,14.70
458.0,14.74
459.0,14.77
460.0,14.81
461.0,14.84
462.0,14.87
463.0,14.91
464.0,14.93
465.0,14.96
466.0,14.99
467.0,15.02
468.0,15.04
469.0,15.07
470.0,15.09
471.0,15.11
472.0,15.14
473.0,15.16
474.0,15.18
475.0,15.20
476.0,15.22
477.0,15.28
478.0,15.33
479.0,15.39
480.0,15.44
481.0,15.49
482.0,15.54
483.0,15.59
484.0,15.64
485.0,15.69
486.0,15.74
487.0,15.97
488.0,16.20
489.0,16.42
490.0,16.62
491.0,16.83
492.0,17.02
493.0,17.21
494.0,17.40
495.0,17.58
496.0,17.75
497.0,18.30
498.0,18.84
499.0,19.36
500.0,19.87
501.0,20.37
502.0,20.86
503.0,21.34
504.0,21.80
505.0,22.25
506.0,22.70
507.0,23.58
508.0,24.45
509.0,25.31
510.0,26.17
511.0,27.01
512.0,27.85
513.0,28.69
514.0,29.51
515.0,30.33
516.0,31.14
517.0,32.09
518.0,33.02
519.0,33.93
520.0,34.82
521.0,35.69
522.0,36.55
523.0,37.39
524.0,38.21
525.0,39.01
526.0,39.80
527.0,40.38
528.0,40.95
529.0,41.50
530.0,42.03
531.0,42.56
532.0,43.07
533.0,43.56
534.0,44.04
535.0,44.52
536.0,44.98
537.0,45.23
538.0,45.48
539.0,45.73
540.0,45.97
541.0,46.20
542.0,46.43
543.0,46.66
544.0,46.88
545.0,47.09
546.0,47.30
547.0,47.41
548.0,47.52
549.0,47.62
550.0,47.73
551.0,47.84
552.0,47.94
553.0,48.04
554.0,48.15
555.0,48.25
556.0,48.36
557.0,48.20
558.0,48.05
559.0,47.90
560.0,47.75
561.0,47.60
562.0,47.46
563.0,47.32
564.0,47.18
565.0,47.04
566.0,46.91
567.0,46.55
568.0,46.19
569.0,45.85
570.0,45.51
571.0,45.18
572.0,44.85
573.0,44.53
574.0,44.21
575.0,43.90
576.0,43.60
577.0,43.32
578.0,43.03
579.0,42.75
580.0,42.48
581.0,42.20
582.0,41.94
583.0,41.67
584.0,41.41
585.0,41.15
586.0,40.89
587.0,40.75
588.0,40.60
589.0,40.46
590.0,40.32
591.0,40.19
592.0,40.05
593.0,39.91
594.0,39.78
595.0,39.65
596.0,39.51
597.0,39.39
598.0,39.27
599.0,39.14
600.0,39.02
601.0,38.90
602.0,38.78
603.0,38.66
604.0,38.53
605.0,38.41
606.0,38.29
607.0,37.99
608.0,37.69
609.0,37.40
610.0,37.11
611.0,36.82
612.0,36.54
613.0,36.27
614.0,35.99
615.0,35.72
616.0,35.46
617.0,35.31
618.0,35.17
619.0,35.03
620.0,34.90
621.0,34.77
622.0,34.64
623.0,34.52
624.0,34.39
625.0,34.27
626.0,34.16
627.0,34.08
628.0,34.01
629.0,33.94
630.0,33.86
631.0,33.79
632.0,33.72
633.0,33.64
634.0,33.57
635.0,33.50
636.0,33.42
637.0,32.88
638.0,32.33
639.0,31.79
640.0,31.25
641.0,30.71
642.0,30.17
643.0,29.63
644.0,29.10
645.0,28.56
646.0,28.03
647.0,27.55
648.0,27.06
649.0,26.58
650.0,26.09
651.0,25.60
652.0,25.10
653.0,24.61
654.0,24.11
655.0,23.60
656.0,23.10
657.0,22.74
658.0,22.38
659.0,22.02
660.0,21.67
661.0,21.32
662.0,20.97
663.0,20.63
664.0,20.28
665.0,19.95
666.0,19.61
667.0,19.42
668.0,19.23
669.0,19.04
670.0,18.85
671.0,18.66
672.0,18.48
673.0,18.30
674.0,18.12
675.0,17.94
676.0,17.76
677.0,18.37
678.0,18.96
679.0,19.54
680.0,20.12
681.0,20.68
682.0,21.24
683.0,21.79
684.0,22.33
685.0,22.86
686.0,23.39
687.0,25.53
688.0,27.67
689.0,29.79
690.0,31.90
691.0,33.99
692.0,36.08
693.0,38.15
694.0,40.21
695.0,42.26
696.0,44.30
697.0,46.39
698.0,48.48
699.0,50.57
700.0,52.64
701.0,54.71
702.0,56.77
703.0,58.83
704.0,60.87
705.0,62.92
706.0,64.95
707.0,66.22
708.0,67.48
709.0,68.75
710.0,70.02
711.0,71.29
712.0,72.57
713.0,73.84
714.0,75.12
715.0,76.39
716.0,77.67
717.0,78.40
718.0,79.13
719.0,79.86
720.0,80.60
721.0,81.33
722.0,82.07
723.0,82.82
724.0,83.56
725.0,84.31
726.0,85.06
727.0,85.35
728.0,85.64
729.0,85.93
730.0,86.23
731.0,86.52
732.0,86.81
733.0,87.10
734.0,87.40
735.0,87.69
736.0,87.99
737.0,88.13
738.0,88.28
739.0,88.42
740.0,88.56
741.0,88.70
742.0,88.84
743.0,88.98
744.0,89.12
745.0,89.25
746.0,89.38
747.0,89.55
748.0,89.72
749.0,89.89
750.0,90.06
751.0,90.23
752.0,90.40
753.0,90.57
754.0,90.74
755.0,90.90
756.0,91.07
757.0,91.14
758.0,91.22
759.0,91.29
760.0,91.36
761.0,91.43
762.0,91.50
763.0,91.57
764.0,91.64
765.0,91.71
766.0,91.78
767.0,91.90
768.0,92.02
769.0,92.14
770.0,92.26
771.0,92.38
772.0,92.49
773.0,92.61
774.0,92.73
775.0,92.84
776.0,92.96
777.0,93.07
778.0,93.18
779.0,93.29
780.0,93.40
781.0,93.51
782.0,93.62
783.0,93.73
784.0,93.83
785.0,93.94
786.0,94.05
787.0,94.28
788.0,94.50
789.0,94.73
790.0,94.95
791.0,95.18
792.0,95.41
793.0,95.64
794.0,95.87
795.0,96.10
796.0,96.34
797.0,96.47
798.0,96.60
799.0,96.74
800.0,96.88
801.0,97.01
802.0,97.15
803.0,97.29
804.0,97.43
805.0,97.58
806.0,97.72
807.0,97.78
808.0,97.84
809.0,97.90
810.0,97.96
811.0,98.02
812.0,98.09
813.0,98.15
814.0,98.21
815.0,98.27
816.0,98.33
817.0,98.29
818.0,98.25
819.0,98.21
820.0,98.17
821.0,98.13
822.0,98.09
823.0,98.05
824.0,98.01
825.0,97.96
826.0,97.92
827.0,97.74
828.0,97.55
829.0,97.37
830.0,97.18
831.0,97.00
832.0,96.82
833.0,96.64
834.0,96.46
835.0,96.28
836.0,96.10
837.0,96.00
838.0,95.89
839.0,95.79
840.0,95.69
841.0,95.59
842.0,95.49
843.0,95.39
844.0,95.30
845.0,95.20
846.0,95.10
847.0,95.07
848.0,95.03
849.0,95.00
850.0,94.96
851.0,94.93
852.0,94.89
853.0,94.86
854.0,94.83
855.0,94.79
856.0,94.76
857.0,94.70
858.0,94.63
859.0,94.57
860.0,94.51
861.0,94.45
862.0,94.38
863.0,94.32
864.0,94.26
865.0,94.20
866.0,94.14
867.0,94.07
868.0,94.00
869.0,93.94
870.0,93.87
871.0,93.80
872.0,93.74
873.0,93.67
874.0,93.61
875.0,93.54
876.0,93.47
877.0,93.41
878.0,93.35
879.0,93.29
880.0,93.23
881.0,93.17
882.0,93.11
883.0,93.05
884.0,92.99
885.0,92.93
886.0,92.88
887.0,92.80
888.0,92.72
889.0,92.65
890.0,92.57
891.0,92.49
892.0,92.42
893.0,92.34
894.0,92.26
895.0,92.19
896.0,92.11
897.0,92.02
898.0,91.94
899.0,91.85
900.0,91.76
901.0,91.68
902.0,91.59
903.0,91.50
904.0,91.41
905.0,91.33
906.0,91.24
907.0,91.10
908.0,90.96
909.0,90.81
910.0,90.67
911.0,90.53
912.0,90.39
913.0,90.24
914.0,90.10
915.0,89.96
916.0,89.81
917.0,89.52
918.0,89.24
919.0,88.95
920.0,88.66
921.0,88.37
922.0,88.08
923.0,87.79
924.0,87.50
925.0,87.21
926.0,86.92
927.0,86.45
928.0,85.98
929.0,85.51
930.0,85.04
931.0,84.57
932.0,84.11
933.0,83.65
934.0,83.19
935.0,82.74
936.0,82.28
937.0,81.75
938.0,81.21
939.0,80.68
940.0,80.15
941.0,79.63
942.0,79.10
943.0,78.58
944.0,78.06
945.0,77.54
946.0,77.02
947.0,76.38
948.0,75.74
949.0,75.10
950.0,74.46
951.0,73.83
952.0,73.20
953.0,72.57
954.0,71.94
955.0,71.32
956.0,70.70
957.0,70.42
958.0,70.14
959.0,69.87
960.0,69.59
961.0,69.32
962.0,69.05
963.0,68.77
964.0,68.50
965.0,68.23
966.0,67.96
967.0,67.98
968.0,68.01
969.0,68.03
970.0,68.06
971.0,68.08
972.0,68.10
973.0,68.12
974.0,68.15
975.0,68.17
976.0,68.19
977.0,67.55
978.0,66.91
979.0,66.27
980.0,65.64
981.0,65.02
982.0,64.41
983.0,63.80
984.0,63.20
985.0,62.61
986.0,62.02
987.0,62.20
988.0,62.37
989.0,62.55
990.0,62.72
991.0,62.90
992.0,63.07
993.0,63.24
994.0,63.42
995.0,63.59
996.0,63.77
997.0,63.99
998.0,64.20
999.0,64.42
1000.0,64.64
1001.0,64.85
1002.0,65.07
1003.0,65.29
1004.0,65.50
1005.0,65.72
1006.0,65.94
1007.0,66.21
1008.0,66.48
1009.0,66.75
1010.0,67.02
1011.0,67.29
1012.0,67.55
1013.0,67.82
1014.0,68.09
1015.0,68.36
1016.0,68.62
1017.0,68.91
1018.0,69.19
1019.0,69.48
1020.0,69.76
1021.0,70.05
1022.0,70.34
1023.0,70.62
1024.0,70.91
1025.0,71.19
1026.0,71.47
1027.0,71.76
1028.0,72.04
1029.0,72.33
1030.0,72.62
1031.0,72.90
1032.0,73.19
1033.0,73.47
1034.0,73.76
1035.0,74.04
1036.0,74.33
1037.0,74.57
1038.0,74.81
1039.0,75.04
1040.0,75.28
1041.0,75.52
1042.0,75.75
1043.0,75.99
1044.0,76.22
1045.0,76.46
1046.0,76.69
1047.0,76.87
1048.0,77.04
1049.0,77.22
1050.0,77.39
1051.0,77.57
1052.0,77.74
1053.0,77.91
1054.0,78.09
1055.0,78.26
1056.0,78.43
1057.0,78.53
1058.0,78.62
1059.0,78.72
1060.0,78.81
1061.0,78.91
1062.0,79.00
1063.0,79.10
1064.0,79.19
1065.0,79.29
1066.0,79.38
1067.0,79.39
1068.0,79.40
1069.0,79.41
1070.0,79.42
1071.0,79.43
1072.0,79.44
1073.0,79.45
1074.0,79.46
1075.0,79.46
1076.0,79.47
1077.0,79.39
1078.0,79.31
1079.0,79.22
1080.0,79.14
1081.0,79.05
1082.0,78.97
1083.0,78.89
1084.0,78.80
1085.0,78.72
1086.0,78.64
1087.0,78.47
1088.0,78.31
1089.0,78.15
1090.0,77.98
1091.0,77.82
1092.0,77.66
1093.0,77.49
1094.0,77.33
1095.0,77.17
1096.0,77.00
1097.0,76.81
1098.0,76.61
1099.0,76.41
1100.0,76.21
1101.0,76.01
1102.0,75.81
1103.0,75.61
1104.0,75.42
1105.0,75.22
1106.0,75.02
1107.0,74.79
1108.0,74.57
1109.0,74.34
1110.0,74.12
1111.0,73.89
1112.0,73.67
1113.0,73.44
1114.0,73.22
1115.0,72.99
1116.0,72.76
1117.0,72.39
1118.0,72.01
1119.0,71.63
1120.0,71.26
1121.0,70.88
1122.0,70.50
1123.0,70.13
1124.0,69.75
1125.0,69.37
1126.0,68.99
1127.0,68.29
1128.0,67.59
1129.0,66.89
1130.0,66.18
1131.0,65.48
1132.0,64.78
1133.0,64.08
1134.0,63.37
1135.0,62.67
1136.0,61.97
1137.0,61.18
1138.0,60.39
1139.0,59.60
1140.0,58.81
1141.0,58.02
1142.0,57.23
1143.0,56.44
1144.0,55.65
1145.0,54.86
1146.0,54.07
1147.0,53.61
1148.0,53.14
1149.0,52.67
1150.0,52.21
1151.0,51.74
1152.0,51.27
1153.0,50.81
1154.0,50.34
1155.0,49.87
1156.0,49.40
1157.0,49.24
1158.0,49.08
1159.0,48.92
1160.0,48.75
1161.0,48.59
1162.0,48.43
1163.0,48.27
1164.0,48.10
1165.0,47.94
1166.0,47.78
1167.0,47.71
1168.0,47.65
1169.0,47.59
1170.0,47.53
1171.0,47.46
1172.0,47.40
1173.0,47.34
1174.0,47.28
1175.0,47.21
1176.0,47.15
1177.0,47.10
1178.0,47.04
1179.0,46.99
1180.0,46.94
1181.0,46.89
1182.0,46.84
1183.0,46.78
1184.0,46.73
1185.0,46.68
1186.0,46.63
1187.0,46.60
1188.0,46.57
1189.0,46.54
1190.0,46.51
1191.0,46.48
1192.0,46.45
1193.0,46.42
1194.0,46.39
1195.0,46.36
1196.0,46.33
1197.0,46.34
1198.0,46.35
1199.0,46.36
1200.0,46.37
1201.0,46.37
1202.0,46.38
1203.0,46.39
1204.0,46.40
1205.0,46.41
1206.0,46.42
1207.0,46.47
1208.0,46.52
1209.0,46.57
1210.0,46.62
1211.0,46.66
1212.0,46.71
1213.0,46.76
1214.0,46.81
1215.0,46.86
1216.0,46.91
1217.0,46.99
1218.0,47.06
1219.0,47.13
1220.0,47.20
1221.0,47.27
1222.0,47.34
1223.0,47.42
1224.0,47.49
1225.0,47.56
1226.0,47.63
1227.0,47.70
1228.0,47.78
1229.0,47.85
1230.0,47.92
1231.0,47.99
1232.0,48.07
1233.0,48.14
1234.0,48.21
1235.0,48.28
1236.0,48.36
1237.0,48.41
1238.0,48.47
1239.0,48.52
1240.0,48.58
1241.0,48.63
1242.0,48.69
1243.0,48.74
1244.0,48.80
1245.0,48.86
1246.0,48.91
1247.0,48.95
1248.0,48.99
1249.0,49.04
1250.0,49.08
1251.0,49.12
1252.0,49.16
1253.0,49.20
1254.0,49.24
1255.0,49.29
1256.0,49.33
1257.0,49.33
1258.0,49.33
1259.0,49.33
1260.0,49.34
1261.0,49.34
1262.0,49.34
1263.0,49.34
1264.0,49.35
1265.0,49.35
1266.0,49.35
1267.0,49.32
1268.0,49.29
1269.0,49.26
1270.0,49.23
1271.0,49.19
1272.0,49.16
1273.0,49.13
1274.0,49.10
1275.0,49.07
1276.0,49.04
1277.0,48.96
1278.0,48.87
1279.0,48.79
1280.0,48.71
1281.0,48.62
1282.0,48.54
1283.0,48.46
1284.0,48.37
1285.0,48.29
1286.0,48.21
1287.0,48.07
1288.0,47.93
1289.0,47.79
1290.0,47.65
1291.0,47.51
1292.0,47.38
1293.0,47.24
1294.0,47.10
1295.0,46.96
1296.0,46.82
1297.0,46.62
1298.0,46.42
1299.0,46.23
1300.0,46.03
1301.0,45.83
1302.0,45.63
1303.0,45.43
1304.0,45.23
1305.0,45.03
1306.0,44.83
1307.0,44.58
1308.0,44.33
1309.0,44.08
1310.0,43.83
1311.0,43.58
1312.0,43.33
1313.0,43.08
1314.0,42.82
1315.0,42.57
1316.0,42.31
1317.0,42.03
1318.0,41.74
1319.0,41.45
1320.0,41.16
1321.0,40.87
1322.0,40.58
1323.0,40.29
1324.0,39.99
1325.0,39.70
1326.0,39.40
1327.0,39.13
1328.0,38.84
1329.0,38.56
1330.0,38.28
1331.0,38.00
1332.0,37.72
1333.0,37.43
1334.0,37.15
1335.0,36.86
1336.0,36.57
1337.0,36.32
1338.0,36.06
1339.0,35.80
1340.0,35.54
1341.0,35.27
1342.0,35.01
1343.0,34.75
1344.0,34.49
1345.0,34.22
1346.0,33.96
1347.0,33.75
1348.0,33.54
1349.0,33.33
1350.0,33.12
1351.0,32.90
1352.0,32.69
1353.0,32.48
1354.0,32.26
1355.0,32.04
1356.0,31.83
1357.0,31.63
1358.0,31.43
1359.0,31.23
1360.0,31.04
1361.0,30.84
1362.0,30.64
1363.0,30.44
1364.0,30.23
1365.0,30.03
1366.0,29.83
1367.0,29.54
1368.0,29.25
1369.0,28.96
1370.0,28.67
1371.0,28.38
1372.0,28.09
1373.0,27.80
1374.0,27.51
1375.0,27.22
1376.0,26.93
1377.0,26.53
1378.0,26.14
1379.0,25.74
1380.0,25.35
1381.0,24.95
1382.0,24.55
1383.0,24.15
1384.0,23.75
1385.0,23.35
1386.0,22.95
1387.0,22.55
1388.0,22.16
1389.0,21.76
1390.0,21.36
1391.0,20.95
1392.0,20.55
1393.0,20.15
1394.0,19.74
1395.0,19.34
1396.0,18.93
1397.0,18.66
1398.0,18.38
1399.0,18.10
1400.0,17.82
1401.0,17.54
1402.0,17.26
1403.0,16.98
1404.0,16.70
1405.0,16.42
1406.0,16.13
1407.0,15.97
1408.0,15.81
1409.0,15.65
1410.0,15.49
1411.0,15.33
1412.0,15.17
1413.0,15.01
1414.0,14.85
1415.0,14.69
1416.0,14.53
1417.0,14.45
1418.0,14.38
1419.0,14.30
1420.0,14.23
1421.0,14.15
1422.0,14.07
1423.0,14.00
1424.0,13.92
1425.0,13.85
1426.0,13.77
1427.0,13.74
1428.0,13.70
1429.0,13.67
1430.0,13.64
1431.0,13.60
1432.0,13.57
1433.0,13.53
1434.0,13.50
1435.0,13.47
1436.0,13.43
1437.0,13.42
1438.0,13.41
1439.0,13.40
1440.0,13.39
1441.0,13.37
1442.0,13.36
1443.0,13.35
1444.0,13.34
1445.0,13.33
1446.0,13.31
1447.0,13.32
1448.0,13.32
1449.0,13.32
1450.0,13.32
1451.0,13.32
1452.0,13.32
1453.0,13.32
1454.0,13.32
1455.0,13.32
1456.0,13.32
1457.0,13.34
1458.0,13.36
1459.0,13.38
1460.0,13.40
1461.0,13.42
1462.0,13.43
1463.0,13.45
1464.0,13.47
1465.0,13.49
1466.0,13.51
1467.0,13.55
1468.0,13.60
1469.0,13.64
1470.0,13.69
1471.0,13.73
1472.0,13.78
1473.0,13.82
1474.0,13.87
1475.0,13.91
1476.0,13.96
1477.0,14.04
1478.0,14.11
1479.0,14.19
1480.0,14.26
1481.0,14.34
1482.0,14.41
1483.0,14.49
1484.0,14.56
1485.0,14.64
1486.0,14.72
1487.0,14.81
1488.0,14.90
1489.0,14.99
1490.0,15.09
1491.0,15.18
1492.0,15.28
1493.0,15.37
1494.0,15.46
1495.0,15.56
1496.0,15.65
1497.0,15.72
1498.0,15.78
1499.0,15.84
1500.0,15.91
1501.0,15.97
1502.0,16.03
1503.0,16.10
1504.0,16.16
1505.0,16.22
1506.0,16.29
1507.0,16.34
1508.0,16.39
1509.0,16.44
1510.0,16.50
1511.0,16.55
1512.0,16.60
1513.0,16.66
1514.0,16.71
1515.0,16.76
1516.0,16.81
1517.0,16.87
1518.0,16.93
1519.0,16.98
1520.0,17.04
1521.0,17.10
1522.0,17.15
1523.0,17.21
1524.0,17.27
1525.0,17.33
1526.0,17.38
1527.0,17.45
1528.0,17.52
1529.0,17.58
1530.0,17.65
1531.0,17.71
1532.0,17.78
1533.0,17.84
1534.0,17.91
1535.0,17.98
1536.0,18.04
1537.0,18.11
1538.0,18.18
1539.0,18.24
1540.0,18.31
1541.0,18.38
1542.0,18.44
1543.0,18.51
1544.0,18.58
1545.0,18.65
1546.0,18.71
1547.0,18.79
1548.0,18.87
1549.0,18.95
1550.0,19.03
1551.0,19.10
1552.0,19.18
1553.0,19.26
1554.0,19.34
1555.0,19.42
1556.0,19.50
1557.0,19.56
1558.0,19.63
1559.0,19.70
1560.0,19.77
1561.0,19.84
1562.0,19.90
1563.0,19.97
1564.0,20.04
1565.0,20.11
1566.0,20.18
1567.0,20.26
1568.0,20.34
1569.0,20.43
1570.0,20.51
1571.0,20.60
1572.0,20.69
1573.0,20.77
1574.0,20.86
1575.0,20.94
1576.0,21.03
1577.0,21.09
1578.0,21.14
1579.0,21.20
1580.0,21.25
1581.0,21.31
1582.0,21.37
1583.0,21.42
1584.0,21.48
1585.0,21.54
1586.0,21.59
1587.0,21.64
1588.0,21.69
1589.0,21.74
1590.0,21.79
1591.0,21.83
1592.0,21.88
1593.0,21.93
1594.0,21.98
1595.0,22.03
1596.0,22.07
1597.0,22.12
1598.0,22.17
1599.0,22.22
1600.0,22.27
1601.0,22.32
1602.0,22.37
1603.0,22.41
1604.0,22.46
1605.0,22.51
1606.0,22.56
1607.0,22.61
1608.0,22.66
1609.0,22.70
1610.0,22.75
1611.0,22.80
1612.0,22.85
1613.0,22.89
1614.0,22.94
1615.0,22.99
1616.0,23.04
1617.0,23.08
1618.0,23.13
1619.0,23.17
1620.0,23.21
1621.0,23.26
1622.0,23.30
1623.0,23.35
1624.0,23.39
1625.0,23.43
1626.0,23.48
1627.0,23.52
1628.0,23.56
1629.0,23.60
1630.0,23.63
1631.0,23.67
1632.0,23.71
1633.0,23.75
1634.0,23.79
1635.0,23.83
1636.0,23.87
1637.0,23.90
1638.0,23.94
1639.0,23.97
1640.0,24.01
1641.0,24.04
1642.0,24.07
1643.0,24.11
1644.0,24.14
1645.0,24.17
1646.0,24.21
1647.0,24.23
1648.0,24.25
1649.0,24.27
1650.0,24.29
1651.0,24.31
1652.0,24.33
1653.0,24.35
1654.0,24.37
1655.0,24.40
1656.0,24.42
1657.0,24.43
1658.0,24.44
1659.0,24.46
1660.0,24.47
1661.0,24.49
1662.0,24.50
1663.0,24.51
1664.0,24.53
1665.0,24.54
1666.0,24.56
1667.0,24.55
1668.0,24.55
1669.0,24.55
1670.0,24.54
1671.0,24.54
1672.0,24.54
1673.0,24.54
1674.0,24.53
1675.0,24.53
1676.0,24.53
1677.0,24.50
1678.0,24.48
1679.0,24.45
1680.0,24.42
1681.0,24.40
1682.0,24.37
1683.0,24.35
1684.0,24.32
1685.0,24.30
1686.0,24.27
1687.0,24.23
1688.0,24.20
1689.0,24.16
1690.0,24.12
1691.0,24.09
1692.0,24.05
1693.0,24.01
1694.0,23.97
1695.0,23.94
1696.0,23.90
1697.0,23.85
1698.0,23.80
1699.0,23.75
1700.0,23.70
1701.0,23.65
1702.0,23.60
1703.0,23.55
1704.0,23.50
1705.0,23.45
1706.0,23.40
1707.0,23.34
1708.0,23.28
1709.0,23.22
1710.0,23.16
1711.0,23.10
1712.0,23.04
1713.0,22.97
1714.0,22.91
1715.0,22.85
1716.0,22.79
1717.0,22.72
1718.0,22.66
1719.0,22.59
1720.0,22.53
1721.0,22.46
1722.0,22.39
1723.0,22.33
1724.0,22.26
1725.0,22.20
1726.0,22.13
1727.0,22.10
1728.0,22.07
1729.0,22.05
1730.0,22.02
1731.0,21.99
1732.0,21.96
1733.0,21.94
1734.0,21.91
1735.0,21.88
1736.0,21.85
1737.0,21.82
1738.0,21.79
1739.0,21.75
1740.0,21.72
1741.0,21.68
1742.0,21.65
1743.0,21.61
1744.0,21.58
1745.0,21.55
1746.0,21.51
1747.0,21.46
1748.0,21.40
1749.0,21.34
1750.0,21.29
1751.0,21.23
1752.0,21.18
1753.0,21.12
1754.0,21.06
1755.0,21.01
1756.0,20.95
1757.0,20.91
1758.0,20.87
1759.0,20.83
1760.0,20.78
1761.0,20.74
1762.0,20.70
1763.0,20.66
1764.0,20.62
1765.0,20.58
1766.0,20.53
1767.0,20.51
1768.0,20.48
1769.0,20.46
1770.0,20.43
1771.0,20.41
1772.0,20.38
1773.0,20.35
1774.0,20.33
1775.0,20.30
1776.0,20.28
1777.0,20.25
1778.0,20.22
1779.0,20.20
1780.0,20.17
1781.0,20.14
1782.0,20.12
1783.0,20.09
1784.0,20.06
1785.0,20.04
1786.0,20.01
1787.0,20.00
1788.0,19.98
1789.0,19.97
1790.0,19.96
1791.0,19.94
1792.0,19.93
1793.0,19.92
1794.0,19.90
1795.0,19.89
1796.0,19.87
1797.0,19.87
1798.0,19.86
1799.0,19.86
1800.0,19.86
1801.0,19.85
1802.0,19.85
1803.0,19.84
1804.0,19.84
1805.0,19.83
1806.0,19.83
1807.0,19.82
1808.0,19.81
1809.0,19.80
1810.0,19.79
1811.0,19.78
1812.0,19.77
1813.0,19.77
1814.0,19.76
1815.0,19.75
1816.0,19.74
1817.0,19.73
1818.0,19.73
1819.0,19.72
1820.0,19.71
1821.0,19.71
1822.0,19.70
1823.0,19.70
1824.0,19.69
1825.0,19.68
1826.0,19.68
1827.0,19.66
1828.0,19.63
1829.0,19.61
1830.0,19.59
1831.0,19.56
1832.0,19.54
1833.0,19.52
1834.0,19.49
1835.0,19.47
1836.0,19.45
1837.0,19.41
1838.0,19.37
1839.0,19.34
1840.0,19.30
1841.0,19.27
1842.0,19.23
1843.0,19.19
1844.0,19.16
1845.0,19.12
1846.0,19.08
1847.0,19.01
1848.0,18.93
1849.0,18.86
1850.0,18.79
1851.0,18.71
1852.0,18.64
1853.0,18.56
1854.0,18.49
1855.0,18.41
1856.0,18.34
1857.0,18.20
1858.0,18.07
1859.0,17.94
1860.0,17.81
1861.0,17.68
1862.0,17.55
1863.0,17.42
1864.0,17.29
1865.0,17.16
1866.0,17.03
1867.0,16.81
1868.0,16.60
1869.0,16.39
1870.0,16.17
1871.0,15.96
1872.0,15.74
1873.0,15.53
1874.0,15.31
1875.0,15.10
1876.0,14.88
1877.0,14.66
1878.0,14.44
1879.0,14.22
1880.0,14.00
1881.0,13.78
1882.0,13.56
1883.0,13.34
1884.0,13.11
1885.0,12.89
1886.0,12.67
1887.0,12.53
1888.0,12.40
1889.0,12.26
1890.0,12.13
1891.0,11.99
1892.0,11.86
1893.0,11.72
1894.0,11.58
1895.0,11.44
1896.0,11.30
1897.0,10.82
1898.0,10.33
1899.0,9.83
1900.0,9.33
1901.0,8.82
1902.0,8.31
1903.0,7.78
1904.0,7.25
1905.0,6.72
1906.0,6.18
1907.0,6.17
1908.0,6.16
1909.0,6.15
1910.0,6.15
1911.0,6.14
1912.0,6.13
1913.0,6.12
1914.0,6.12
1915.0,6.11
1916.0,6.10
1917.0,6.10
1918.0,6.10
1919.0,6.10
1920.0,6.10
1921.0,6.10
1922.0,6.10
1923.0,6.10
1924.0,6.10
1925.0,6.09
1926.0,6.09
1927.0,6.10
1928.0,6.11
1929.0,6.12
1930.0,6.12
1931.0,6.13
1932.0,6.14
1933.0,6.14
1934.0,6.15
