Wavelength,Reflectance
346.0,18.44
347.0,17.98
348.0,17.24
349.0,16.38
350.0,15.7
351.0,15.18
352.0,14.45
353.0,13.99
354.0,13.92
355.0,13.86
356.0,13.65
357.0,13.11
358.0,12.98
359.0,12.93
360.0,12.55
361.0,12.15
362.0,11.78
363.0,11.66
364.0,11.53
365.0,11.38
366.0,10.89
367.0,10.41
368.0,9.97
369.0,9.77
370.0,9.54
371.0,9.09
372.0,8.88
373.0,8.81
374.0,8.92
375.0,8.78
376.0,8.5
377.0,8.25
378.0,8.02
379.0,7.81
380.0,7.75
381.0,7.55
382.0,7.23
383.0,7.0
384.0,6.86
385.0,6.81
386.0,6.65
387.0,6.48
388.0,6.36
389.0,6.33
390.0,6.33
391.0,6.4
392.0,6.41
393.0,6.41
394.0,6.39
395.0,6.52
396.0,6.73
397.0,6.77
398.0,6.64
399.0,6.37
400.0,6.11
401.0,5.9
402.0,5.75
403.0,5.62
404.0,5.53
405.0,5.48
406.0,5.43
407.0,5.37
408.0,5.33
409.0,5.37
410.0,5.42
411.0,5.44
412.0,5.42
413.0,5.41
414.0,5.52
415.0,5.55
416.0,5.55
417.0,5.54
418.0,5.56
419.0,5.58
420.0,5.5
421.0,5.46
422.0,5.44
423.0,5.43
424.0,5.41
425.0,5.4
426.0,5.29
427.0,5.22
428.0,5.19
429.0,5.15
430.0,5.11
431.0,5.09
432.0,5.09
433.0,5.09
434.0,5.09
435.0,5.05
436.0,5.04
437.0,5.06
438.0,5.07
439.0,5.07
440.0,5.06
441.0,5.08
442.0,5.11
443.0,5.14
444.0,5.21
445.0,5.27
446.0,5.3
447.0,5.4
448.0,5.51
449.0,5.57
450.0,5.59
451.0,5.6
452.0,5.6
453.0,5.63
454.0,5.67
455.0,5.72
456.0,5.75
457.0,5.78
458.0,5.83
459.0,5.84
460.0,5.86
461.0,5.91
462.0,5.94
463.0,5.96
464.0,6.01
465.0,6.04
466.0,6.06
467.0,6.07
468.0,6.12
469.0,6.18
470.0,6.26
471.0,6.38
472.0,6.46
473.0,6.42
474.0,6.29
475.0,6.18
476.0,6.12
477.0,6.12
478.0,6.14
479.0,6.2
480.0,6.25
481.0,6.28
482.0,6.3
483.0,6.34
484.0,6.38
485.0,6.42
486.0,6.45
487.0,6.48
488.0,6.54
489.0,6.6
490.0,6.66
491.0,6.73
492.0,6.82
493.0,6.93
494.0,7.06
495.0,7.2
496.0,7.35
497.0,7.49
498.0,7.68
499.0,7.86
500.0,8.04
501.0,8.29
502.0,8.53
503.0,8.78
504.0,9.04
505.0,9.32
506.0,9.61
507.0,9.94
508.0,10.27
509.0,10.6
510.0,10.93
511.0,11.31
512.0,11.68
513.0,12.04
514.0,12.38
515.0,12.74
516.0,13.13
517.0,13.51
518.0,13.89
519.0,14.28
520.0,14.67
521.0,15.08
522.0,15.48
523.0,15.83
524.0,16.19
525.0,16.54
526.0,16.87
527.0,17.18
528.0,17.47
529.0,17.78
530.0,18.04
531.0,18.29
532.0,18.56
533.0,18.78
534.0,19.0
535.0,19.21
536.0,19.41
537.0,19.6
538.0,19.8
539.0,20.01
540.0,20.17
541.0,20.29
542.0,20.37
543.0,20.45
544.0,20.54
545.0,20.68
546.0,20.85
547.0,21.01
548.0,21.16
549.0,21.31
550.0,21.45
551.0,21.58
552.0,21.68
553.0,21.78
554.0,21.87
555.0,21.94
556.0,21.99
557.0,22.02
558.0,22.05
559.0,22.09
560.0,22.11
561.0,22.11
562.0,22.12
563.0,22.12
564.0,22.12
565.0,22.09
566.0,22.05
567.0,22.0
568.0,21.94
569.0,21.88
570.0,21.79
571.0,21.69
572.0,21.59
573.0,21.48
574.0,21.36
575.0,21.24
576.0,21.13
577.0,21.03
578.0,20.93
579.0,20.83
580.0,20.73
581.0,20.65
582.0,20.57
583.0,20.49
584.0,20.41
585.0,20.31
586.0,20.2
587.0,20.08
588.0,19.97
589.0,19.86
590.0,19.77
591.0,19.71
592.0,19.67
593.0,19.64
594.0,19.61
595.0,19.59
596.0,19.57
597.0,19.55
598.0,19.52
599.0,19.49
600.0,19.45
601.0,19.4
602.0,19.33
603.0,19.27
604.0,19.2
605.0,19.11
606.0,19.02
607.0,18.93
608.0,18.83
609.0,18.71
610.0,18.6
611.0,18.48
612.0,18.35
613.0,18.21
614.0,18.09
615.0,17.97
616.0,17.84
617.0,17.72
618.0,17.59
619.0,17.48
620.0,17.36
621.0,17.22
622.0,17.01
623.0,16.79
624.0,16.59
625.0,16.43
626.0,16.33
627.0,16.31
628.0,16.34
629.0,16.42
630.0,16.53
631.0,16.64
632.0,16.74
633.0,16.83
634.0,16.87
635.0,16.89
636.0,16.9
637.0,16.87
638.0,16.8
639.0,16.71
640.0,16.63
641.0,16.53
642.0,16.38
643.0,16.18
644.0,15.95
645.0,15.67
646.0,15.35
647.0,14.99
648.0,14.57
649.0,14.11
650.0,13.62
651.0,13.1
652.0,12.58
653.0,12.18
654.0,12.02
655.0,11.95
656.0,11.9
657.0,11.83
658.0,11.71
659.0,11.55
660.0,11.34
661.0,11.1
662.0,10.87
663.0,10.63
664.0,10.38
665.0,10.12
666.0,9.89
667.0,9.67
668.0,9.46
669.0,9.27
670.0,9.13
671.0,9.0
672.0,8.88
673.0,8.79
674.0,8.73
675.0,8.7
676.0,8.69
677.0,8.7
678.0,8.76
679.0,8.85
680.0,9.0
681.0,9.2
682.0,9.45
683.0,9.77
684.0,10.21
685.0,10.72
686.0,11.33
687.0,12.04
688.0,12.83
689.0,13.76
690.0,14.74
691.0,15.76
692.0,16.93
693.0,18.07
694.0,19.25
695.0,20.48
696.0,21.71
697.0,22.87
698.0,24.03
699.0,25.2
700.0,26.25
701.0,27.32
702.0,28.36
703.0,29.33
704.0,30.28
705.0,31.2
706.0,32.05
707.0,32.82
708.0,33.56
709.0,34.28
710.0,34.94
711.0,35.56
712.0,36.17
713.0,36.76
714.0,37.33
715.0,37.86
716.0,38.32
717.0,38.79
718.0,39.24
719.0,39.66
720.0,40.04
721.0,40.4
722.0,40.76
723.0,41.11
724.0,41.38
725.0,41.64
726.0,41.88
727.0,42.11
728.0,42.35
729.0,42.52
730.0,42.67
731.0,42.8
732.0,42.9
733.0,42.98
734.0,43.07
735.0,43.14
736.0,43.21
737.0,43.23
738.0,43.32
739.0,43.43
740.0,43.53
741.0,43.59
742.0,43.69
743.0,43.78
744.0,43.86
745.0,43.93
746.0,43.97
747.0,44.01
748.0,44.07
749.0,44.18
750.0,44.26
751.0,44.34
752.0,44.39
753.0,44.42
754.0,44.44
755.0,44.44
756.0,44.46
757.0,44.51
758.0,44.56
759.0,44.59
760.0,44.64
761.0,44.7
762.0,44.74
763.0,44.75
764.0,44.81
765.0,44.86
766.0,44.9
767.0,44.93
768.0,44.96
769.0,44.98
770.0,45.01
771.0,45.04
772.0,45.08
773.0,45.12
774.0,45.16
775.0,45.22
776.0,45.29
777.0,45.37
778.0,45.4
779.0,45.46
780.0,45.51
781.0,45.55
782.0,45.54
783.0,45.61
784.0,45.67
785.0,45.73
786.0,45.77
787.0,45.87
788.0,46.02
789.0,46.14
790.0,46.22
791.0,46.22
792.0,46.22
793.0,46.27
794.0,46.37
795.0,46.47
796.0,46.53
797.0,46.57
798.0,46.64
799.0,46.72
800.0,46.78
801.0,46.82
802.0,46.89
803.0,46.92
804.0,46.98
805.0,47.04
806.0,47.08
807.0,47.15
808.0,47.2
809.0,47.25
810.0,47.28
811.0,47.32
812.0,47.35
813.0,47.33
814.0,47.32
815.0,47.34
816.0,47.35
817.0,47.36
818.0,47.37
819.0,47.32
820.0,47.25
821.0,47.19
822.0,47.13
823.0,47.06
824.0,46.98
825.0,46.91
826.0,46.81
827.0,46.7
828.0,46.59
829.0,46.47
830.0,46.38
831.0,46.25
832.0,46.15
833.0,46.08
834.0,46.0
835.0,45.91
836.0,45.84
837.0,45.8
838.0,45.8
839.0,45.76
840.0,45.71
841.0,45.69
842.0,45.69
843.0,45.65
844.0,45.58
845.0,45.55
846.0,45.48
847.0,45.44
848.0,45.44
849.0,45.44
850.0,45.45
851.0,45.42
852.0,45.45
853.0,45.45
854.0,45.42
855.0,45.39
856.0,45.38
857.0,45.38
858.0,45.38
859.0,45.4
860.0,45.35
861.0,45.31
862.0,45.28
863.0,45.27
864.0,45.26
865.0,45.19
866.0,45.17
867.0,45.13
868.0,45.08
869.0,45.08
870.0,45.05
871.0,45.01
872.0,44.99
873.0,44.95
874.0,44.88
875.0,44.83
876.0,44.78
877.0,44.74
878.0,44.63
879.0,44.57
880.0,44.52
881.0,44.46
882.0,44.41
883.0,44.36
884.0,44.36
885.0,44.32
886.0,44.27
887.0,44.24
888.0,44.24
889.0,44.19
890.0,44.12
891.0,44.06
892.0,44.01
893.0,43.94
894.0,43.84
895.0,43.78
896.0,43.72
897.0,43.64
898.0,43.59
899.0,43.53
900.0,43.41
901.0,43.31
902.0,43.27
903.0,43.23
904.0,43.15
905.0,43.08
906.0,43.0
907.0,42.92
908.0,42.87
909.0,42.79
910.0,42.66
911.0,42.6
912.0,42.5
913.0,42.34
914.0,42.26
915.0,42.12
916.0,42.01
917.0,41.9
918.0,41.7
919.0,41.51
920.0,41.36
921.0,41.24
922.0,41.06
923.0,40.82
924.0,40.6
925.0,40.36
926.0,40.17
927.0,39.98
928.0,39.72
929.0,39.51
930.0,39.25
931.0,39.04
932.0,38.76
933.0,38.54
934.0,38.3
935.0,37.95
936.0,37.62
937.0,37.39
938.0,37.18
939.0,36.88
940.0,36.58
941.0,36.21
942.0,35.92
943.0,35.59
944.0,35.36
945.0,35.04
946.0,34.68
947.0,34.33
948.0,34.02
949.0,33.71
950.0,33.36
951.0,33.07
952.0,32.73
953.0,32.38
954.0,32.09
955.0,31.83
956.0,31.54
957.0,31.27
958.0,31.05
959.0,30.8
960.0,30.67
961.0,30.6
962.0,30.39
963.0,30.25
964.0,30.22
965.0,30.1
966.0,30.03
967.0,29.95
968.0,29.91
969.0,29.8
970.0,29.82
971.0,29.66
972.0,29.6
973.0,29.45
974.0,29.44
975.0,29.21
976.0,29.08
977.0,28.99
978.0,28.89
979.0,28.72
980.0,29.25
981.0,31.2
982.0,32.0
983.0,32.06
984.0,32.12
985.0,32.17
986.0,32.24
987.0,32.31
988.0,32.39
989.0,32.46
990.0,32.56
991.0,32.68
992.0,32.79
993.0,32.91
994.0,33.04
995.0,33.18
996.0,33.33
997.0,33.47
998.0,33.6
999.0,33.72
1000.0,33.85
1001.0,33.98
1002.0,34.1
1003.0,34.23
1004.0,34.36
1005.0,34.49
1006.0,34.61
1007.0,34.74
1008.0,34.87
1009.0,35.0
1010.0,35.13
1011.0,35.26
1012.0,35.39
1013.0,35.52
1014.0,35.66
1015.0,35.8
1016.0,35.94
1017.0,36.08
1018.0,36.23
1019.0,36.39
1020.0,36.55
1021.0,36.7
1022.0,36.86
1023.0,37.02
1024.0,37.18
1025.0,37.34
1026.0,37.49
1027.0,37.65
1028.0,37.8
1029.0,37.95
1030.0,38.1
1031.0,38.24
1032.0,38.39
1033.0,38.54
1034.0,38.67
1035.0,38.81
1036.0,38.95
1037.0,39.09
1038.0,39.22
1039.0,39.36
1040.0,39.5
1041.0,39.63
1042.0,39.76
1043.0,39.9
1044.0,40.03
1045.0,40.16
1046.0,40.27
1047.0,40.39
1048.0,40.5
1049.0,40.61
1050.0,40.72
1051.0,40.83
1052.0,40.94
1053.0,41.04
1054.0,41.13
1055.0,41.21
1056.0,41.3
1057.0,41.38
1058.0,41.44
1059.0,41.5
1060.0,41.56
1061.0,41.62
1062.0,41.67
1063.0,41.72
1064.0,41.77
1065.0,41.81
1066.0,41.84
1067.0,41.87
1068.0,41.9
1069.0,41.92
1070.0,41.92
1071.0,41.92
1072.0,41.93
1073.0,41.92
1074.0,41.91
1075.0,41.9
1076.0,41.89
1077.0,41.87
1078.0,41.84
1079.0,41.8
1080.0,41.77
1081.0,41.72
1082.0,41.66
1083.0,41.61
1084.0,41.55
1085.0,41.49
1086.0,41.42
1087.0,41.35
1088.0,41.28
1089.0,41.2
1090.0,41.11
1091.0,41.01
1092.0,40.92
1093.0,40.82
1094.0,40.72
1095.0,40.63
1096.0,40.53
1097.0,40.43
1098.0,40.33
1099.0,40.23
1100.0,40.14
1101.0,40.02
1102.0,39.91
1103.0,39.8
1104.0,39.68
1105.0,39.57
1106.0,39.45
1107.0,39.34
1108.0,39.22
1109.0,39.1
1110.0,38.98
1111.0,38.85
1112.0,38.73
1113.0,38.6
1114.0,38.48
1115.0,38.35
1116.0,38.22
1117.0,38.06
1118.0,37.9
1119.0,37.75
1120.0,37.58
1121.0,37.38
1122.0,37.19
1123.0,36.99
1124.0,36.78
1125.0,36.51
1126.0,36.25
1127.0,35.98
1128.0,35.7
1129.0,35.36
1130.0,35.02
1131.0,34.68
1132.0,34.33
1133.0,33.92
1134.0,33.51
1135.0,33.1
1136.0,32.68
1137.0,32.25
1138.0,31.81
1139.0,31.37
1140.0,30.95
1141.0,30.55
1142.0,30.14
1143.0,29.74
1144.0,29.36
1145.0,29.0
1146.0,28.64
1147.0,28.29
1148.0,27.96
1149.0,27.68
1150.0,27.39
1151.0,27.11
1152.0,26.88
1153.0,26.68
1154.0,26.49
1155.0,26.3
1156.0,26.14
1157.0,26.0
1158.0,25.87
1159.0,25.73
1160.0,25.63
1161.0,25.54
1162.0,25.44
1163.0,25.35
1164.0,25.29
1165.0,25.24
1166.0,25.19
1167.0,25.14
1168.0,25.09
1169.0,25.05
1170.0,25.01
1171.0,24.97
1172.0,24.94
1173.0,24.91
1174.0,24.87
1175.0,24.84
1176.0,24.81
1177.0,24.78
1178.0,24.75
1179.0,24.72
1180.0,24.69
1181.0,24.66
1182.0,24.63
1183.0,24.6
1184.0,24.58
1185.0,24.55
1186.0,24.53
1187.0,24.5
1188.0,24.47
1189.0,24.45
1190.0,24.42
1191.0,24.4
1192.0,24.38
1193.0,24.36
1194.0,24.35
1195.0,24.34
1196.0,24.33
1197.0,24.33
1198.0,24.33
1199.0,24.33
1200.0,24.33
1201.0,24.34
1202.0,24.34
1203.0,24.35
1204.0,24.36
1205.0,24.37
1206.0,24.38
1207.0,24.39
1208.0,24.41
1209.0,24.42
1210.0,24.44
1211.0,24.46
1212.0,24.49
1213.0,24.51
1214.0,24.53
1215.0,24.56
1216.0,24.59
1217.0,24.62
1218.0,24.65
1219.0,24.68
1220.0,24.71
1221.0,24.75
1222.0,24.78
1223.0,24.82
1224.0,24.85
1225.0,24.89
1226.0,24.93
1227.0,24.97
1228.0,25.0
1229.0,25.04
1230.0,25.08
1231.0,25.11
1232.0,25.14
1233.0,25.18
1234.0,25.21
1235.0,25.24
1236.0,25.27
1237.0,25.3
1238.0,25.32
1239.0,25.35
1240.0,25.38
1241.0,25.4
1242.0,25.43
1243.0,25.46
1244.0,25.48
1245.0,25.51
1246.0,25.53
1247.0,25.54
1248.0,25.56
1249.0,25.58
1250.0,25.6
1251.0,25.63
1252.0,25.65
1253.0,25.68
1254.0,25.7
1255.0,25.72
1256.0,25.73
1257.0,25.75
1258.0,25.76
1259.0,25.77
1260.0,25.78
1261.0,25.79
1262.0,25.8
1263.0,25.8
1264.0,25.81
1265.0,25.81
1266.0,25.8
1267.0,25.8
1268.0,25.79
1269.0,25.78
1270.0,25.76
1271.0,25.74
1272.0,25.73
1273.0,25.71
1274.0,25.68
1275.0,25.66
1276.0,25.63
1277.0,25.6
1278.0,25.56
1279.0,25.53
1280.0,25.49
1281.0,25.45
1282.0,25.4
1283.0,25.35
1284.0,25.3
1285.0,25.25
1286.0,25.19
1287.0,25.14
1288.0,25.08
1289.0,25.02
1290.0,24.96
1291.0,24.89
1292.0,24.83
1293.0,24.76
1294.0,24.69
1295.0,24.61
1296.0,24.53
1297.0,24.45
1298.0,24.36
1299.0,24.27
1300.0,24.18
1301.0,24.08
1302.0,23.97
1303.0,23.87
1304.0,23.77
1305.0,23.66
1306.0,23.56
1307.0,23.45
1308.0,23.34
1309.0,23.21
1310.0,23.09
1311.0,22.97
1312.0,22.84
1313.0,22.7
1314.0,22.57
1315.0,22.43
1316.0,22.29
1317.0,22.15
1318.0,22.0
1319.0,21.86
1320.0,21.71
1321.0,21.55
1322.0,21.4
1323.0,21.24
1324.0,21.09
1325.0,20.94
1326.0,20.79
1327.0,20.64
1328.0,20.49
1329.0,20.34
1330.0,20.18
1331.0,20.03
1332.0,19.88
1333.0,19.73
1334.0,19.57
1335.0,19.42
1336.0,19.28
1337.0,19.14
1338.0,19.0
1339.0,18.86
1340.0,18.73
1341.0,18.61
1342.0,18.48
1343.0,18.36
1344.0,18.24
1345.0,18.12
1346.0,18.0
1347.0,17.89
1348.0,17.79
1349.0,17.69
1350.0,17.58
1351.0,17.48
1352.0,17.39
1353.0,17.29
1354.0,17.19
1355.0,17.09
1356.0,16.99
1357.0,16.88
1358.0,16.78
1359.0,16.67
1360.0,16.56
1361.0,16.44
1362.0,16.33
1363.0,16.21
1364.0,16.08
1365.0,15.96
1366.0,15.83
1367.0,15.69
1368.0,15.56
1369.0,15.43
1370.0,15.29
1371.0,15.14
1372.0,14.99
1373.0,14.84
1374.0,14.68
1375.0,14.51
1376.0,14.35
1377.0,14.18
1378.0,13.99
1379.0,13.78
1380.0,13.57
1381.0,13.36
1382.0,13.12
1383.0,12.87
1384.0,12.63
1385.0,12.39
1386.0,12.14
1387.0,11.89
1388.0,11.64
1389.0,11.39
1390.0,11.17
1391.0,10.94
1392.0,10.71
1393.0,10.48
1394.0,10.27
1395.0,10.06
1396.0,9.85
1397.0,9.65
1398.0,9.47
1399.0,9.29
1400.0,9.11
1401.0,8.94
1402.0,8.79
1403.0,8.64
1404.0,8.48
1405.0,8.35
1406.0,8.23
1407.0,8.1
1408.0,7.98
1409.0,7.88
1410.0,7.78
1411.0,7.68
1412.0,7.58
1413.0,7.51
1414.0,7.44
1415.0,7.37
1416.0,7.29
1417.0,7.23
1418.0,7.17
1419.0,7.11
1420.0,7.05
1421.0,7.01
1422.0,6.96
1423.0,6.92
1424.0,6.88
1425.0,6.85
1426.0,6.82
1427.0,6.78
1428.0,6.76
1429.0,6.73
1430.0,6.71
1431.0,6.69
1432.0,6.67
1433.0,6.64
1434.0,6.62
1435.0,6.6
1436.0,6.59
1437.0,6.58
1438.0,6.57
1439.0,6.56
1440.0,6.56
1441.0,6.55
1442.0,6.54
1443.0,6.54
1444.0,6.53
1445.0,6.53
1446.0,6.52
1447.0,6.52
1448.0,6.52
1449.0,6.52
1450.0,6.52
1451.0,6.52
1452.0,6.52
1453.0,6.52
1454.0,6.52
1455.0,6.51
1456.0,6.51
1457.0,6.51
1458.0,6.51
1459.0,6.52
1460.0,6.53
1461.0,6.53
1462.0,6.54
1463.0,6.56
1464.0,6.57
1465.0,6.58
1466.0,6.6
1467.0,6.62
1468.0,6.63
1469.0,6.65
1470.0,6.67
1471.0,6.69
1472.0,6.71
1473.0,6.73
1474.0,6.76
1475.0,6.79
1476.0,6.82
1477.0,6.84
1478.0,6.88
1479.0,6.91
1480.0,6.94
1481.0,6.97
1482.0,7.01
1483.0,7.05
1484.0,7.09
1485.0,7.13
1486.0,7.18
1487.0,7.22
1488.0,7.27
1489.0,7.32
1490.0,7.37
1491.0,7.42
1492.0,7.47
1493.0,7.52
1494.0,7.56
1495.0,7.61
1496.0,7.66
1497.0,7.7
1498.0,7.74
1499.0,7.78
1500.0,7.81
1501.0,7.84
1502.0,7.88
1503.0,7.91
1504.0,7.94
1505.0,7.97
1506.0,8.0
1507.0,8.03
1508.0,8.07
1509.0,8.1
1510.0,8.13
1511.0,8.17
1512.0,8.2
1513.0,8.23
1514.0,8.26
1515.0,8.29
1516.0,8.33
1517.0,8.36
1518.0,8.39
1519.0,8.43
1520.0,8.46
1521.0,8.49
1522.0,8.52
1523.0,8.55
1524.0,8.57
1525.0,8.6
1526.0,8.62
1527.0,8.64
1528.0,8.66
1529.0,8.68
1530.0,8.7
1531.0,8.73
1532.0,8.76
1533.0,8.79
1534.0,8.83
1535.0,8.86
1536.0,8.9
1537.0,8.93
1538.0,8.96
1539.0,9.0
1540.0,9.03
1541.0,9.06
1542.0,9.09
1543.0,9.12
1544.0,9.15
1545.0,9.18
1546.0,9.2
1547.0,9.23
1548.0,9.25
1549.0,9.28
1550.0,9.31
1551.0,9.35
1552.0,9.39
1553.0,9.44
1554.0,9.5
1555.0,9.56
1556.0,9.62
1557.0,9.68
1558.0,9.74
1559.0,9.79
1560.0,9.85
1561.0,9.9
1562.0,9.95
1563.0,10.0
1564.0,10.04
1565.0,10.08
1566.0,10.12
1567.0,10.16
1568.0,10.2
1569.0,10.24
1570.0,10.28
1571.0,10.32
1572.0,10.37
1573.0,10.42
1574.0,10.47
1575.0,10.52
1576.0,10.56
1577.0,10.6
1578.0,10.64
1579.0,10.68
1580.0,10.7
1581.0,10.73
1582.0,10.76
1583.0,10.78
1584.0,10.81
1585.0,10.84
1586.0,10.86
1587.0,10.89
1588.0,10.91
1589.0,10.94
1590.0,10.96
1591.0,10.99
1592.0,11.02
1593.0,11.04
1594.0,11.07
1595.0,11.1
1596.0,11.12
1597.0,11.15
1598.0,11.18
1599.0,11.2
1600.0,11.23
1601.0,11.26
1602.0,11.28
1603.0,11.31
1604.0,11.34
1605.0,11.37
1606.0,11.4
1607.0,11.43
1608.0,11.46
1609.0,11.49
1610.0,11.51
1611.0,11.54
1612.0,11.56
1613.0,11.58
1614.0,11.6
1615.0,11.62
1616.0,11.65
1617.0,11.67
1618.0,11.7
1619.0,11.72
1620.0,11.75
1621.0,11.77
1622.0,11.79
1623.0,11.82
1624.0,11.84
1625.0,11.86
1626.0,11.88
1627.0,11.9
1628.0,11.92
1629.0,11.94
1630.0,11.96
1631.0,11.98
1632.0,12.01
1633.0,12.03
1634.0,12.06
1635.0,12.08
1636.0,12.1
1637.0,12.12
1638.0,12.14
1639.0,12.15
1640.0,12.17
1641.0,12.18
1642.0,12.2
1643.0,12.21
1644.0,12.23
1645.0,12.25
1646.0,12.27
1647.0,12.28
1648.0,12.3
1649.0,12.31
1650.0,12.33
1651.0,12.34
1652.0,12.35
1653.0,12.36
1654.0,12.37
1655.0,12.37
1656.0,12.37
1657.0,12.38
1658.0,12.38
1659.0,12.39
1660.0,12.4
1661.0,12.4
1662.0,12.4
1663.0,12.41
1664.0,12.41
1665.0,12.41
1666.0,12.41
1667.0,12.41
1668.0,12.41
1669.0,12.41
1670.0,12.41
1671.0,12.41
1672.0,12.4
1673.0,12.4
1674.0,12.39
1675.0,12.38
1676.0,12.37
1677.0,12.36
1678.0,12.35
1679.0,12.34
1680.0,12.32
1681.0,12.3
1682.0,12.28
1683.0,12.26
1684.0,12.25
1685.0,12.23
1686.0,12.22
1687.0,12.21
1688.0,12.19
1689.0,12.18
1690.0,12.16
1691.0,12.14
1692.0,12.13
1693.0,12.11
1694.0,12.09
1695.0,12.08
1696.0,12.06
1697.0,12.04
1698.0,12.01
1699.0,11.98
1700.0,11.96
1701.0,11.93
1702.0,11.9
1703.0,11.88
1704.0,11.85
1705.0,11.83
1706.0,11.8
1707.0,11.78
1708.0,11.75
1709.0,11.72
1710.0,11.69
1711.0,11.66
1712.0,11.63
1713.0,11.59
1714.0,11.56
1715.0,11.53
1716.0,11.49
1717.0,11.46
1718.0,11.42
1719.0,11.39
1720.0,11.36
1721.0,11.32
1722.0,11.29
1723.0,11.26
1724.0,11.23
1725.0,11.2
1726.0,11.18
1727.0,11.15
1728.0,11.12
1729.0,11.09
1730.0,11.06
1731.0,11.04
1732.0,11.03
1733.0,11.01
1734.0,10.99
1735.0,10.98
1736.0,10.97
1737.0,10.96
1738.0,10.94
1739.0,10.92
1740.0,10.91
1741.0,10.89
1742.0,10.88
1743.0,10.86
1744.0,10.85
1745.0,10.82
1746.0,10.8
1747.0,10.78
1748.0,10.76
1749.0,10.73
1750.0,10.7
1751.0,10.67
1752.0,10.64
1753.0,10.61
1754.0,10.57
1755.0,10.54
1756.0,10.52
1757.0,10.49
1758.0,10.47
1759.0,10.45
1760.0,10.43
1761.0,10.4
1762.0,10.38
1763.0,10.36
1764.0,10.34
1765.0,10.32
1766.0,10.3
1767.0,10.28
1768.0,10.27
1769.0,10.25
1770.0,10.24
1771.0,10.22
1772.0,10.21
1773.0,10.19
1774.0,10.17
1775.0,10.15
1776.0,10.14
1777.0,10.12
1778.0,10.11
1779.0,10.09
1780.0,10.08
1781.0,10.07
1782.0,10.06
1783.0,10.05
1784.0,10.04
1785.0,10.02
1786.0,10.01
1787.0,10.0
1788.0,9.99
1789.0,9.98
1790.0,9.97
1791.0,9.96
1792.0,9.96
1793.0,9.96
1794.0,9.96
1795.0,9.95
1796.0,9.95
1797.0,9.95
1798.0,9.95
1799.0,9.95
1800.0,9.95
1801.0,9.95
1802.0,9.95
1803.0,9.95
1804.0,9.95
1805.0,9.96
1806.0,9.96
1807.0,9.96
1808.0,9.96
1809.0,9.96
1810.0,9.96
1811.0,9.95
1812.0,9.95
1813.0,9.95
1814.0,9.96
1815.0,9.96
1816.0,9.96
1817.0,9.96
1818.0,9.96
1819.0,9.97
1820.0,9.96
1821.0,9.96
1822.0,9.95
1823.0,9.95
1824.0,9.95
1825.0,9.95
1826.0,9.95
1827.0,9.93
1828.0,9.92
1829.0,9.91
1830.0,9.89
1831.0,9.89
1832.0,9.88
1833.0,9.87
1834.0,9.86
1835.0,9.85
1836.0,9.84
1837.0,9.83
1838.0,9.8
1839.0,9.78
1840.0,9.75
1841.0,9.73
1842.0,9.7
1843.0,9.68
1844.0,9.65
1845.0,9.62
1846.0,9.59
1847.0,9.56
1848.0,9.52
1849.0,9.48
1850.0,9.44
1851.0,9.4
1852.0,9.37
1853.0,9.34
1854.0,9.3
1855.0,9.26
1856.0,9.21
1857.0,9.15
1858.0,9.1
1859.0,9.05
1860.0,8.99
1861.0,8.94
1862.0,8.87
1863.0,8.81
1864.0,8.75
1865.0,8.68
1866.0,8.59
1867.0,8.5
1868.0,8.41
1869.0,8.29
1870.0,8.15
1871.0,8.02
1872.0,7.88
1873.0,7.74
1874.0,7.59
1875.0,7.45
1876.0,7.3
1877.0,7.16
1878.0,7.02
1879.0,6.88
1880.0,6.77
1881.0,6.66
1882.0,6.54
1883.0,6.44
1884.0,6.33
1885.0,6.22
1886.0,6.11
1887.0,5.99
1888.0,5.87
1889.0,5.75
1890.0,5.66
1891.0,5.57
1892.0,5.49
1893.0,5.42
1894.0,5.38
1895.0,5.33
1896.0,5.29
1897.0,5.26
1898.0,5.24
1899.0,5.21
1900.0,4.95
1901.0,4.13
1902.0,3.51
1903.0,3.46
1904.0,3.42
1905.0,3.42
1906.0,3.45
1907.0,3.48
1908.0,3.47
1909.0,3.44
1910.0,3.41
1911.0,3.37
1912.0,3.33
1913.0,3.3
1914.0,3.32
1915.0,3.33
1916.0,3.34
1917.0,3.33
1918.0,3.33
1919.0,3.31
1920.0,3.27
1921.0,3.24
1922.0,3.26
1923.0,3.27
1924.0,3.28
1925.0,3.28
1926.0,3.29
1927.0,3.29
1928.0,3.28
1929.0,3.27
1930.0,3.28
1931.0,3.29
1932.0,3.3
1933.0,3.32
1934.0,3.33
1935.0,3.35
1936.0,3.35
1937.0,3.36
1938.0,3.36
1939.0,3.35
1940.0,3.35
1941.0,3.34
1942.0,3.33
1943.0,3.33
1944.0,3.34
1945.0,3.35
1946.0,3.36
1947.0,3.37
1948.0,3.38
1949.0,3.38
1950.0,3.37
1951.0,3.36
1952.0,3.38
1953.0,3.4
1954.0,3.43
1955.0,3.48
1956.0,3.52
1957.0,3.54
1958.0,3.54
1959.0,3.54
1960.0,3.54
1961.0,3.53
1962.0,3.53
1963.0,3.56
1964.0,3.58
1965.0,3.61
1966.0,3.62
1967.0,3.64
1968.0,3.63
1969.0,3.62
1970.0,3.61
1971.0,3.65
1972.0,3.68
1973.0,3.72
1974.0,3.75
1975.0,3.79
1976.0,3.8
1977.0,3.8
1978.0,3.8
1979.0,3.82
1980.0,3.85
1981.0,3.87
1982.0,3.9
1983.0,3.92
1984.0,3.93
