Wavelength,Reflectance
346.0,25.41
347.0,25.19
348.0,24.8
349.0,24.02
350.0,22.8
351.0,21.23
352.0,20.8
353.0,20.56
354.0,20.39
355.0,20.01
356.0,19.61
357.0,19.24
358.0,19.06
359.0,18.93
360.0,18.71
361.0,18.28
362.0,17.76
363.0,17.62
364.0,17.31
365.0,16.86
366.0,16.54
367.0,16.0
368.0,15.11
369.0,14.78
370.0,14.6
371.0,14.45
372.0,14.26
373.0,14.05
374.0,13.84
375.0,13.65
376.0,13.47
377.0,13.29
378.0,13.09
379.0,12.89
380.0,12.78
381.0,12.57
382.0,12.27
383.0,12.09
384.0,11.9
385.0,11.66
386.0,11.48
387.0,11.36
388.0,11.33
389.0,11.34
390.0,11.35
391.0,11.4
392.0,11.43
393.0,11.48
394.0,11.73
395.0,11.88
396.0,11.94
397.0,11.92
398.0,11.74
399.0,11.44
400.0,11.29
401.0,11.18
402.0,11.13
403.0,10.94
404.0,10.84
405.0,10.89
406.0,10.83
407.0,10.79
408.0,10.83
409.0,10.79
410.0,10.76
411.0,10.84
412.0,10.92
413.0,11.01
414.0,11.11
415.0,11.21
416.0,11.29
417.0,11.24
418.0,11.26
419.0,11.32
420.0,11.26
421.0,11.25
422.0,11.27
423.0,11.26
424.0,11.23
425.0,11.18
426.0,11.03
427.0,10.96
428.0,10.96
429.0,10.87
430.0,10.81
431.0,10.8
432.0,10.82
433.0,10.81
434.0,10.76
435.0,10.73
436.0,10.74
437.0,10.79
438.0,10.83
439.0,10.87
440.0,10.9
441.0,10.95
442.0,11.01
443.0,11.09
444.0,11.21
445.0,11.34
446.0,11.47
447.0,11.61
448.0,11.73
449.0,11.81
450.0,11.85
451.0,11.91
452.0,12.0
453.0,12.1
454.0,12.21
455.0,12.32
456.0,12.4
457.0,12.48
458.0,12.54
459.0,12.62
460.0,12.69
461.0,12.74
462.0,12.81
463.0,12.87
464.0,12.91
465.0,12.94
466.0,12.97
467.0,13.0
468.0,13.07
469.0,13.17
470.0,13.33
471.0,13.4
472.0,13.39
473.0,13.21
474.0,13.08
475.0,13.03
476.0,13.1
477.0,13.21
478.0,13.32
479.0,13.39
480.0,13.44
481.0,13.48
482.0,13.51
483.0,13.56
484.0,13.61
485.0,13.66
486.0,13.73
487.0,13.82
488.0,13.95
489.0,14.09
490.0,14.22
491.0,14.36
492.0,14.55
493.0,14.75
494.0,14.96
495.0,15.23
496.0,15.51
497.0,15.79
498.0,16.1
499.0,16.43
500.0,16.77
501.0,17.15
502.0,17.56
503.0,17.99
504.0,18.45
505.0,18.91
506.0,19.39
507.0,19.92
508.0,20.45
509.0,20.99
510.0,21.53
511.0,22.1
512.0,22.66
513.0,23.19
514.0,23.75
515.0,24.32
516.0,24.88
517.0,25.45
518.0,26.01
519.0,26.57
520.0,27.12
521.0,27.69
522.0,28.26
523.0,28.77
524.0,29.29
525.0,29.8
526.0,30.25
527.0,30.67
528.0,31.08
529.0,31.5
530.0,31.85
531.0,32.19
532.0,32.52
533.0,32.8
534.0,33.07
535.0,33.33
536.0,33.58
537.0,33.82
538.0,34.05
539.0,34.27
540.0,34.44
541.0,34.58
542.0,34.7
543.0,34.83
544.0,34.98
545.0,35.17
546.0,35.37
547.0,35.56
548.0,35.7
549.0,35.85
550.0,35.99
551.0,36.11
552.0,36.21
553.0,36.3
554.0,36.39
555.0,36.45
556.0,36.48
557.0,36.51
558.0,36.52
559.0,36.52
560.0,36.51
561.0,36.5
562.0,36.46
563.0,36.41
564.0,36.36
565.0,36.29
566.0,36.19
567.0,36.08
568.0,35.95
569.0,35.82
570.0,35.66
571.0,35.48
572.0,35.31
573.0,35.14
574.0,34.97
575.0,34.79
576.0,34.63
577.0,34.48
578.0,34.31
579.0,34.17
580.0,34.05
581.0,33.92
582.0,33.81
583.0,33.7
584.0,33.57
585.0,33.44
586.0,33.31
587.0,33.17
588.0,33.02
589.0,32.89
590.0,32.78
591.0,32.7
592.0,32.63
593.0,32.56
594.0,32.5
595.0,32.44
596.0,32.37
597.0,32.3
598.0,32.23
599.0,32.16
600.0,32.07
601.0,31.95
602.0,31.83
603.0,31.71
604.0,31.58
605.0,31.44
606.0,31.28
607.0,31.12
608.0,30.95
609.0,30.76
610.0,30.57
611.0,30.37
612.0,30.17
613.0,29.96
614.0,29.75
615.0,29.53
616.0,29.32
617.0,29.14
618.0,28.98
619.0,28.85
620.0,28.74
621.0,28.61
622.0,28.43
623.0,28.21
624.0,27.98
625.0,27.75
626.0,27.5
627.0,27.25
628.0,27.02
629.0,26.79
630.0,26.6
631.0,26.47
632.0,26.42
633.0,26.53
634.0,26.67
635.0,26.83
636.0,26.98
637.0,27.09
638.0,27.17
639.0,27.22
640.0,27.19
641.0,27.12
642.0,27.0
643.0,26.84
644.0,26.65
645.0,26.4
646.0,26.11
647.0,25.79
648.0,25.44
649.0,25.1
650.0,24.78
651.0,24.5
652.0,24.24
653.0,23.92
654.0,23.47
655.0,23.0
656.0,22.5
657.0,21.99
658.0,21.54
659.0,21.08
660.0,20.6
661.0,20.13
662.0,19.68
663.0,19.24
664.0,18.81
665.0,18.39
666.0,18.02
667.0,17.69
668.0,17.38
669.0,17.1
670.0,16.88
671.0,16.68
672.0,16.51
673.0,16.39
674.0,16.31
675.0,16.26
676.0,16.25
677.0,16.3
678.0,16.39
679.0,16.53
680.0,16.76
681.0,17.09
682.0,17.5
683.0,18.02
684.0,18.69
685.0,19.48
686.0,20.4
687.0,21.45
688.0,22.56
689.0,23.88
690.0,25.25
691.0,26.65
692.0,28.24
693.0,29.79
694.0,31.39
695.0,33.08
696.0,34.76
697.0,36.31
698.0,37.86
699.0,39.44
700.0,40.85
701.0,42.27
702.0,43.62
703.0,44.87
704.0,46.11
705.0,47.31
706.0,48.42
707.0,49.44
708.0,50.44
709.0,51.41
710.0,52.3
711.0,53.08
712.0,53.89
713.0,54.67
714.0,55.41
715.0,56.13
716.0,56.73
717.0,57.35
718.0,57.95
719.0,58.52
720.0,59.03
721.0,59.52
722.0,60.01
723.0,60.5
724.0,60.96
725.0,61.38
726.0,61.75
727.0,62.09
728.0,62.44
729.0,62.73
730.0,63.0
731.0,63.28
732.0,63.52
733.0,63.75
734.0,63.94
735.0,64.12
736.0,64.31
737.0,64.51
738.0,64.7
739.0,64.9
740.0,65.11
741.0,65.25
742.0,65.44
743.0,65.63
744.0,65.81
745.0,66.0
746.0,66.09
747.0,66.12
748.0,66.13
749.0,66.11
750.0,66.02
751.0,66.0
752.0,66.02
753.0,66.09
754.0,66.2
755.0,66.35
756.0,66.53
757.0,66.72
758.0,66.89
759.0,67.03
760.0,67.18
761.0,67.31
762.0,67.42
763.0,67.46
764.0,67.57
765.0,67.65
766.0,67.72
767.0,67.77
768.0,67.87
769.0,67.92
770.0,67.95
771.0,67.99
772.0,68.05
773.0,68.1
774.0,68.16
775.0,68.21
776.0,68.26
777.0,68.3
778.0,68.37
779.0,68.44
780.0,68.52
781.0,68.59
782.0,68.67
783.0,68.72
784.0,68.8
785.0,68.9
786.0,69.01
787.0,69.12
788.0,69.08
789.0,68.93
790.0,68.75
791.0,68.64
792.0,68.66
793.0,68.73
794.0,68.8
795.0,68.84
796.0,68.88
797.0,68.96
798.0,69.07
799.0,69.17
800.0,69.22
801.0,69.25
802.0,69.34
803.0,69.33
804.0,69.36
805.0,69.38
806.0,69.4
807.0,69.45
808.0,69.51
809.0,69.56
810.0,69.63
811.0,69.71
812.0,69.77
813.0,69.82
814.0,69.89
815.0,69.9
816.0,69.88
817.0,69.84
818.0,69.8
819.0,69.76
820.0,69.69
821.0,69.66
822.0,69.64
823.0,69.61
824.0,69.6
825.0,69.53
826.0,69.46
827.0,69.4
828.0,69.31
829.0,69.21
830.0,69.17
831.0,69.1
832.0,69.05
833.0,69.01
834.0,68.99
835.0,68.99
836.0,69.0
837.0,69.04
838.0,69.07
839.0,69.07
840.0,69.07
841.0,69.1
842.0,69.16
843.0,69.24
844.0,69.24
845.0,69.29
846.0,69.3
847.0,69.31
848.0,69.33
849.0,69.31
850.0,69.24
851.0,69.15
852.0,69.16
853.0,69.13
854.0,69.09
855.0,69.08
856.0,69.08
857.0,69.08
858.0,69.12
859.0,69.14
860.0,69.14
861.0,69.15
862.0,69.17
863.0,69.16
864.0,69.12
865.0,69.11
866.0,69.12
867.0,69.09
868.0,69.06
869.0,69.02
870.0,69.0
871.0,68.99
872.0,68.97
873.0,68.96
874.0,68.92
875.0,68.88
876.0,68.88
877.0,68.85
878.0,68.76
879.0,68.66
880.0,68.59
881.0,68.53
882.0,68.44
883.0,68.32
884.0,68.26
885.0,68.14
886.0,67.97
887.0,67.89
888.0,67.79
889.0,67.68
890.0,67.62
891.0,67.55
892.0,67.45
893.0,67.38
894.0,67.32
895.0,67.27
896.0,67.19
897.0,67.1
898.0,67.1
899.0,67.03
900.0,66.92
901.0,66.78
902.0,66.74
903.0,66.68
904.0,66.55
905.0,66.44
906.0,66.41
907.0,66.37
908.0,66.33
909.0,66.26
910.0,66.15
911.0,66.0
912.0,65.89
913.0,65.72
914.0,65.61
915.0,65.53
916.0,65.4
917.0,65.28
918.0,65.13
919.0,64.91
920.0,64.74
921.0,64.61
922.0,64.42
923.0,64.22
924.0,64.03
925.0,63.77
926.0,63.6
927.0,63.4
928.0,63.06
929.0,62.79
930.0,62.56
931.0,62.29
932.0,62.02
933.0,61.8
934.0,61.56
935.0,61.29
936.0,61.01
937.0,60.74
938.0,60.46
939.0,60.19
940.0,59.88
941.0,59.62
942.0,59.36
943.0,59.01
944.0,58.78
945.0,58.4
946.0,58.08
947.0,57.74
948.0,57.39
949.0,56.96
950.0,56.57
951.0,56.29
952.0,55.91
953.0,55.53
954.0,55.22
955.0,54.88
956.0,54.55
957.0,54.23
958.0,54.03
959.0,53.77
960.0,53.59
961.0,53.49
962.0,53.28
963.0,53.19
964.0,53.19
965.0,53.1
966.0,52.92
967.0,52.88
968.0,52.93
969.0,52.85
970.0,52.84
971.0,52.79
972.0,52.68
973.0,52.61
974.0,52.65
975.0,52.41
976.0,52.27
977.0,52.2
978.0,52.14
979.0,52.25
980.0,51.62
981.0,49.75
982.0,49.1
983.0,49.24
984.0,49.38
985.0,49.52
986.0,49.65
987.0,49.79
988.0,49.92
989.0,50.05
990.0,50.21
991.0,50.37
992.0,50.53
993.0,50.69
994.0,50.83
995.0,50.98
996.0,51.12
997.0,51.26
998.0,51.38
999.0,51.5
1000.0,51.62
1001.0,51.74
1002.0,51.85
1003.0,51.96
1004.0,52.07
1005.0,52.18
1006.0,52.31
1007.0,52.45
1008.0,52.58
1009.0,52.71
1010.0,52.86
1011.0,53.0
1012.0,53.15
1013.0,53.29
1014.0,53.44
1015.0,53.58
1016.0,53.72
1017.0,53.87
1018.0,54.02
1019.0,54.16
1020.0,54.31
1021.0,54.46
1022.0,54.6
1023.0,54.75
1024.0,54.89
1025.0,55.03
1026.0,55.16
1027.0,55.3
1028.0,55.43
1029.0,55.57
1030.0,55.7
1031.0,55.83
1032.0,55.96
1033.0,56.09
1034.0,56.23
1035.0,56.36
1036.0,56.5
1037.0,56.63
1038.0,56.77
1039.0,56.9
1040.0,57.03
1041.0,57.16
1042.0,57.29
1043.0,57.41
1044.0,57.53
1045.0,57.65
1046.0,57.76
1047.0,57.87
1048.0,57.99
1049.0,58.1
1050.0,58.2
1051.0,58.31
1052.0,58.41
1053.0,58.51
1054.0,58.59
1055.0,58.67
1056.0,58.74
1057.0,58.81
1058.0,58.87
1059.0,58.92
1060.0,58.98
1061.0,59.03
1062.0,59.08
1063.0,59.12
1064.0,59.17
1065.0,59.2
1066.0,59.23
1067.0,59.25
1068.0,59.27
1069.0,59.29
1070.0,59.28
1071.0,59.28
1072.0,59.28
1073.0,59.27
1074.0,59.26
1075.0,59.25
1076.0,59.24
1077.0,59.22
1078.0,59.19
1079.0,59.16
1080.0,59.12
1081.0,59.08
1082.0,59.02
1083.0,58.97
1084.0,58.91
1085.0,58.85
1086.0,58.78
1087.0,58.7
1088.0,58.63
1089.0,58.55
1090.0,58.46
1091.0,58.37
1092.0,58.29
1093.0,58.19
1094.0,58.1
1095.0,58.0
1096.0,57.9
1097.0,57.8
1098.0,57.7
1099.0,57.59
1100.0,57.49
1101.0,57.39
1102.0,57.28
1103.0,57.18
1104.0,57.07
1105.0,56.97
1106.0,56.87
1107.0,56.76
1108.0,56.66
1109.0,56.54
1110.0,56.42
1111.0,56.3
1112.0,56.17
1113.0,56.04
1114.0,55.9
1115.0,55.77
1116.0,55.63
1117.0,55.45
1118.0,55.27
1119.0,55.1
1120.0,54.91
1121.0,54.7
1122.0,54.49
1123.0,54.28
1124.0,54.06
1125.0,53.78
1126.0,53.5
1127.0,53.21
1128.0,52.91
1129.0,52.54
1130.0,52.17
1131.0,51.8
1132.0,51.42
1133.0,50.96
1134.0,50.5
1135.0,50.04
1136.0,49.57
1137.0,49.07
1138.0,48.56
1139.0,48.06
1140.0,47.57
1141.0,47.1
1142.0,46.63
1143.0,46.16
1144.0,45.72
1145.0,45.31
1146.0,44.89
1147.0,44.48
1148.0,44.12
1149.0,43.79
1150.0,43.47
1151.0,43.14
1152.0,42.89
1153.0,42.67
1154.0,42.45
1155.0,42.24
1156.0,42.06
1157.0,41.92
1158.0,41.77
1159.0,41.62
1160.0,41.51
1161.0,41.42
1162.0,41.33
1163.0,41.23
1164.0,41.17
1165.0,41.12
1166.0,41.06
1167.0,41.01
1168.0,40.96
1169.0,40.92
1170.0,40.87
1171.0,40.83
1172.0,40.79
1173.0,40.75
1174.0,40.71
1175.0,40.67
1176.0,40.63
1177.0,40.6
1178.0,40.56
1179.0,40.52
1180.0,40.48
1181.0,40.44
1182.0,40.4
1183.0,40.36
1184.0,40.32
1185.0,40.29
1186.0,40.25
1187.0,40.22
1188.0,40.18
1189.0,40.14
1190.0,40.1
1191.0,40.06
1192.0,40.03
1193.0,40.01
1194.0,39.98
1195.0,39.96
1196.0,39.96
1197.0,39.96
1198.0,39.96
1199.0,39.97
1200.0,39.97
1201.0,39.98
1202.0,39.99
1203.0,40.0
1204.0,40.01
1205.0,40.03
1206.0,40.04
1207.0,40.06
1208.0,40.08
1209.0,40.1
1210.0,40.12
1211.0,40.15
1212.0,40.18
1213.0,40.21
1214.0,40.24
1215.0,40.28
1216.0,40.33
1217.0,40.37
1218.0,40.42
1219.0,40.47
1220.0,40.53
1221.0,40.58
1222.0,40.63
1223.0,40.69
1224.0,40.74
1225.0,40.79
1226.0,40.84
1227.0,40.88
1228.0,40.93
1229.0,40.97
1230.0,41.01
1231.0,41.06
1232.0,41.11
1233.0,41.15
1234.0,41.2
1235.0,41.24
1236.0,41.28
1237.0,41.32
1238.0,41.37
1239.0,41.41
1240.0,41.45
1241.0,41.49
1242.0,41.53
1243.0,41.57
1244.0,41.61
1245.0,41.65
1246.0,41.69
1247.0,41.72
1248.0,41.75
1249.0,41.78
1250.0,41.8
1251.0,41.83
1252.0,41.86
1253.0,41.89
1254.0,41.91
1255.0,41.92
1256.0,41.94
1257.0,41.96
1258.0,41.97
1259.0,41.99
1260.0,42.0
1261.0,42.01
1262.0,42.02
1263.0,42.03
1264.0,42.04
1265.0,42.05
1266.0,42.04
1267.0,42.03
1268.0,42.03
1269.0,42.02
1270.0,42.0
1271.0,41.98
1272.0,41.96
1273.0,41.94
1274.0,41.91
1275.0,41.87
1276.0,41.84
1277.0,41.8
1278.0,41.75
1279.0,41.7
1280.0,41.66
1281.0,41.6
1282.0,41.54
1283.0,41.49
1284.0,41.43
1285.0,41.36
1286.0,41.28
1287.0,41.21
1288.0,41.13
1289.0,41.05
1290.0,40.97
1291.0,40.88
1292.0,40.79
1293.0,40.7
1294.0,40.6
1295.0,40.5
1296.0,40.4
1297.0,40.28
1298.0,40.16
1299.0,40.05
1300.0,39.93
1301.0,39.79
1302.0,39.66
1303.0,39.52
1304.0,39.38
1305.0,39.23
1306.0,39.08
1307.0,38.93
1308.0,38.78
1309.0,38.61
1310.0,38.44
1311.0,38.27
1312.0,38.09
1313.0,37.92
1314.0,37.74
1315.0,37.57
1316.0,37.39
1317.0,37.19
1318.0,37.0
1319.0,36.8
1320.0,36.6
1321.0,36.39
1322.0,36.17
1323.0,35.96
1324.0,35.74
1325.0,35.53
1326.0,35.32
1327.0,35.11
1328.0,34.89
1329.0,34.68
1330.0,34.47
1331.0,34.25
1332.0,34.04
1333.0,33.83
1334.0,33.61
1335.0,33.4
1336.0,33.19
1337.0,32.99
1338.0,32.78
1339.0,32.58
1340.0,32.39
1341.0,32.21
1342.0,32.02
1343.0,31.84
1344.0,31.66
1345.0,31.48
1346.0,31.3
1347.0,31.14
1348.0,30.98
1349.0,30.83
1350.0,30.68
1351.0,30.53
1352.0,30.38
1353.0,30.23
1354.0,30.08
1355.0,29.93
1356.0,29.77
1357.0,29.6
1358.0,29.44
1359.0,29.27
1360.0,29.1
1361.0,28.93
1362.0,28.76
1363.0,28.58
1364.0,28.4
1365.0,28.21
1366.0,28.02
1367.0,27.82
1368.0,27.63
1369.0,27.43
1370.0,27.22
1371.0,26.97
1372.0,26.73
1373.0,26.49
1374.0,26.22
1375.0,25.92
1376.0,25.63
1377.0,25.33
1378.0,24.98
1379.0,24.6
1380.0,24.22
1381.0,23.84
1382.0,23.44
1383.0,23.03
1384.0,22.63
1385.0,22.23
1386.0,21.83
1387.0,21.44
1388.0,21.04
1389.0,20.64
1390.0,20.25
1391.0,19.86
1392.0,19.47
1393.0,19.08
1394.0,18.71
1395.0,18.35
1396.0,17.98
1397.0,17.63
1398.0,17.32
1399.0,17.01
1400.0,16.7
1401.0,16.41
1402.0,16.14
1403.0,15.88
1404.0,15.61
1405.0,15.38
1406.0,15.17
1407.0,14.96
1408.0,14.75
1409.0,14.57
1410.0,14.4
1411.0,14.23
1412.0,14.07
1413.0,13.94
1414.0,13.82
1415.0,13.7
1416.0,13.58
1417.0,13.48
1418.0,13.38
1419.0,13.27
1420.0,13.18
1421.0,13.11
1422.0,13.03
1423.0,12.96
1424.0,12.89
1425.0,12.84
1426.0,12.79
1427.0,12.73
1428.0,12.69
1429.0,12.65
1430.0,12.6
1431.0,12.56
1432.0,12.53
1433.0,12.49
1434.0,12.46
1435.0,12.43
1436.0,12.41
1437.0,12.38
1438.0,12.36
1439.0,12.34
1440.0,12.33
1441.0,12.31
1442.0,12.3
1443.0,12.29
1444.0,12.28
1445.0,12.27
1446.0,12.26
1447.0,12.25
1448.0,12.25
1449.0,12.24
1450.0,12.24
1451.0,12.24
1452.0,12.24
1453.0,12.24
1454.0,12.24
1455.0,12.24
1456.0,12.25
1457.0,12.26
1458.0,12.26
1459.0,12.28
1460.0,12.3
1461.0,12.31
1462.0,12.33
1463.0,12.36
1464.0,12.39
1465.0,12.41
1466.0,12.45
1467.0,12.48
1468.0,12.51
1469.0,12.55
1470.0,12.59
1471.0,12.63
1472.0,12.67
1473.0,12.71
1474.0,12.76
1475.0,12.82
1476.0,12.88
1477.0,12.93
1478.0,13.0
1479.0,13.06
1480.0,13.12
1481.0,13.19
1482.0,13.26
1483.0,13.33
1484.0,13.41
1485.0,13.48
1486.0,13.56
1487.0,13.65
1488.0,13.73
1489.0,13.81
1490.0,13.9
1491.0,13.99
1492.0,14.08
1493.0,14.17
1494.0,14.25
1495.0,14.34
1496.0,14.42
1497.0,14.49
1498.0,14.56
1499.0,14.63
1500.0,14.7
1501.0,14.77
1502.0,14.83
1503.0,14.9
1504.0,14.95
1505.0,15.01
1506.0,15.06
1507.0,15.11
1508.0,15.15
1509.0,15.2
1510.0,15.24
1511.0,15.28
1512.0,15.32
1513.0,15.36
1514.0,15.4
1515.0,15.44
1516.0,15.5
1517.0,15.56
1518.0,15.62
1519.0,15.7
1520.0,15.79
1521.0,15.88
1522.0,15.97
1523.0,16.06
1524.0,16.16
1525.0,16.26
1526.0,16.36
1527.0,16.44
1528.0,16.52
1529.0,16.61
1530.0,16.69
1531.0,16.75
1532.0,16.82
1533.0,16.89
1534.0,16.96
1535.0,17.03
1536.0,17.1
1537.0,17.17
1538.0,17.25
1539.0,17.32
1540.0,17.4
1541.0,17.48
1542.0,17.55
1543.0,17.63
1544.0,17.71
1545.0,17.78
1546.0,17.85
1547.0,17.92
1548.0,17.98
1549.0,18.05
1550.0,18.11
1551.0,18.18
1552.0,18.24
1553.0,18.3
1554.0,18.36
1555.0,18.42
1556.0,18.48
1557.0,18.53
1558.0,18.57
1559.0,18.62
1560.0,18.67
1561.0,18.73
1562.0,18.8
1563.0,18.86
1564.0,18.93
1565.0,19.02
1566.0,19.1
1567.0,19.18
1568.0,19.25
1569.0,19.33
1570.0,19.4
1571.0,19.48
1572.0,19.55
1573.0,19.63
1574.0,19.71
1575.0,19.78
1576.0,19.84
1577.0,19.9
1578.0,19.96
1579.0,20.02
1580.0,20.07
1581.0,20.12
1582.0,20.17
1583.0,20.22
1584.0,20.27
1585.0,20.32
1586.0,20.37
1587.0,20.42
1588.0,20.46
1589.0,20.51
1590.0,20.56
1591.0,20.6
1592.0,20.64
1593.0,20.68
1594.0,20.72
1595.0,20.77
1596.0,20.81
1597.0,20.85
1598.0,20.89
1599.0,20.94
1600.0,20.98
1601.0,21.02
1602.0,21.07
1603.0,21.12
1604.0,21.16
1605.0,21.21
1606.0,21.27
1607.0,21.32
1608.0,21.37
1609.0,21.42
1610.0,21.47
1611.0,21.51
1612.0,21.56
1613.0,21.6
1614.0,21.63
1615.0,21.67
1616.0,21.71
1617.0,21.75
1618.0,21.79
1619.0,21.83
1620.0,21.87
1621.0,21.91
1622.0,21.96
1623.0,22.0
1624.0,22.04
1625.0,22.08
1626.0,22.11
1627.0,22.15
1628.0,22.19
1629.0,22.23
1630.0,22.27
1631.0,22.31
1632.0,22.34
1633.0,22.38
1634.0,22.42
1635.0,22.44
1636.0,22.47
1637.0,22.49
1638.0,22.52
1639.0,22.53
1640.0,22.55
1641.0,22.57
1642.0,22.59
1643.0,22.61
1644.0,22.63
1645.0,22.65
1646.0,22.67
1647.0,22.68
1648.0,22.69
1649.0,22.7
1650.0,22.7
1651.0,22.71
1652.0,22.71
1653.0,22.72
1654.0,22.72
1655.0,22.72
1656.0,22.73
1657.0,22.73
1658.0,22.73
1659.0,22.74
1660.0,22.74
1661.0,22.75
1662.0,22.75
1663.0,22.75
1664.0,22.76
1665.0,22.76
1666.0,22.76
1667.0,22.76
1668.0,22.76
1669.0,22.76
1670.0,22.76
1671.0,22.76
1672.0,22.75
1673.0,22.75
1674.0,22.74
1675.0,22.73
1676.0,22.73
1677.0,22.72
1678.0,22.71
1679.0,22.69
1680.0,22.67
1681.0,22.65
1682.0,22.63
1683.0,22.6
1684.0,22.58
1685.0,22.56
1686.0,22.54
1687.0,22.51
1688.0,22.49
1689.0,22.47
1690.0,22.44
1691.0,22.41
1692.0,22.37
1693.0,22.34
1694.0,22.31
1695.0,22.28
1696.0,22.25
1697.0,22.21
1698.0,22.18
1699.0,22.14
1700.0,22.1
1701.0,22.05
1702.0,22.0
1703.0,21.95
1704.0,21.9
1705.0,21.86
1706.0,21.81
1707.0,21.76
1708.0,21.71
1709.0,21.66
1710.0,21.6
1711.0,21.55
1712.0,21.5
1713.0,21.45
1714.0,21.4
1715.0,21.35
1716.0,21.3
1717.0,21.25
1718.0,21.2
1719.0,21.15
1720.0,21.09
1721.0,21.04
1722.0,20.98
1723.0,20.93
1724.0,20.88
1725.0,20.83
1726.0,20.78
1727.0,20.73
1728.0,20.69
1729.0,20.64
1730.0,20.6
1731.0,20.58
1732.0,20.55
1733.0,20.53
1734.0,20.52
1735.0,20.51
1736.0,20.5
1737.0,20.48
1738.0,20.45
1739.0,20.42
1740.0,20.39
1741.0,20.36
1742.0,20.32
1743.0,20.28
1744.0,20.24
1745.0,20.19
1746.0,20.15
1747.0,20.1
1748.0,20.05
1749.0,20.0
1750.0,19.95
1751.0,19.9
1752.0,19.84
1753.0,19.79
1754.0,19.74
1755.0,19.68
1756.0,19.63
1757.0,19.57
1758.0,19.52
1759.0,19.47
1760.0,19.42
1761.0,19.38
1762.0,19.33
1763.0,19.29
1764.0,19.26
1765.0,19.23
1766.0,19.2
1767.0,19.17
1768.0,19.14
1769.0,19.11
1770.0,19.09
1771.0,19.07
1772.0,19.05
1773.0,19.03
1774.0,19.01
1775.0,18.99
1776.0,18.97
1777.0,18.95
1778.0,18.92
1779.0,18.9
1780.0,18.88
1781.0,18.87
1782.0,18.85
1783.0,18.83
1784.0,18.81
1785.0,18.8
1786.0,18.78
1787.0,18.76
1788.0,18.75
1789.0,18.74
1790.0,18.72
1791.0,18.72
1792.0,18.71
1793.0,18.71
1794.0,18.7
1795.0,18.7
1796.0,18.7
1797.0,18.7
1798.0,18.71
1799.0,18.71
1800.0,18.71
1801.0,18.71
1802.0,18.71
1803.0,18.71
1804.0,18.71
1805.0,18.71
1806.0,18.72
1807.0,18.73
1808.0,18.74
1809.0,18.75
1810.0,18.75
1811.0,18.75
1812.0,18.75
1813.0,18.76
1814.0,18.76
1815.0,18.76
1816.0,18.76
1817.0,18.76
1818.0,18.76
1819.0,18.76
1820.0,18.75
1821.0,18.74
1822.0,18.73
1823.0,18.73
1824.0,18.73
1825.0,18.73
1826.0,18.73
1827.0,18.72
1828.0,18.72
1829.0,18.71
1830.0,18.7
1831.0,18.7
1832.0,18.69
1833.0,18.68
1834.0,18.66
1835.0,18.64
1836.0,18.62
1837.0,18.6
1838.0,18.57
1839.0,18.55
1840.0,18.52
1841.0,18.51
1842.0,18.51
1843.0,18.5
1844.0,18.5
1845.0,18.5
1846.0,18.5
1847.0,18.5
1848.0,18.49
1849.0,18.47
1850.0,18.46
1851.0,18.44
1852.0,18.4
1853.0,18.36
1854.0,18.33
1855.0,18.25
1856.0,18.15
1857.0,18.05
1858.0,17.94
1859.0,17.78
1860.0,17.62
1861.0,17.47
1862.0,17.27
1863.0,17.07
1864.0,16.86
1865.0,16.64
1866.0,16.37
1867.0,16.1
1868.0,15.82
1869.0,15.53
1870.0,15.22
1871.0,14.91
1872.0,14.61
1873.0,14.33
1874.0,14.05
1875.0,13.77
1876.0,13.51
1877.0,13.25
1878.0,12.99
1879.0,12.73
1880.0,12.46
1881.0,12.2
1882.0,11.94
1883.0,11.69
1884.0,11.46
1885.0,11.23
1886.0,11.0
1887.0,10.82
1888.0,10.63
1889.0,10.45
1890.0,10.3
1891.0,10.16
1892.0,10.03
1893.0,9.91
1894.0,9.81
1895.0,9.72
1896.0,9.62
1897.0,9.59
1898.0,9.58
1899.0,9.57
1900.0,9.2
1901.0,7.96
1902.0,7.0
1903.0,6.88
1904.0,6.76
1905.0,6.69
1906.0,6.66
1907.0,6.63
1908.0,6.6
1909.0,6.57
1910.0,6.53
1911.0,6.47
1912.0,6.4
1913.0,6.34
1914.0,6.32
1915.0,6.3
1916.0,6.27
1917.0,6.25
1918.0,6.23
1919.0,6.23
1920.0,6.23
1921.0,6.23
1922.0,6.23
1923.0,6.23
1924.0,6.24
1925.0,6.24
1926.0,6.24
1927.0,6.22
1928.0,6.18
1929.0,6.14
1930.0,6.14
1931.0,6.14
1932.0,6.15
1933.0,6.16
1934.0,6.18
1935.0,6.19
1936.0,6.18
1937.0,6.16
1938.0,6.17
1939.0,6.2
1940.0,6.23
1941.0,6.25
1942.0,6.27
1943.0,6.3
1944.0,6.3
1945.0,6.3
1946.0,6.33
1947.0,6.37
1948.0,6.42
1949.0,6.44
1950.0,6.46
1951.0,6.48
