WAVELENGTH,PC1,PC2
346,0.31854926561898755,0.0296575324706469
347,0.21798927839979534,0.027676183238218067
348,0.06919344840912352,0.024763736727676337
349,-0.02711104203352368,0.015226619873467212
350,-0.10886703724980798,0.00608221778964739
351,-0.1787894143615544,-0.0021055216512631523
352,-0.24788460950816307,0.0074274137107748096
353,-0.2811279980631293,0.00952531892464684
354,-0.26925154349796576,-0.0020936603678043167
355,-0.31972139784782383,-0.0071666494109760516
356,-0.37599331162599986,-0.010217821312021617
357,-0.4175263080283685,-0.012636725737288097
358,-0.43821443265686705,-0.018067706762892752
359,-0.45571929707066217,-0.020639201173081247
360,-0.48990886876976114,-0.008606643983580816
361,-0.5391691128991435,-0.013561377052667826
362,-0.5923582758376279,-0.026561215276039035
363,-0.6063109607417689,-0.025415042891798235
364,-0.6244157191532047,-0.02408274415289478
365,-0.6480878880727441,-0.023265466562022562
366,-0.6845878788316075,-0.025594752360617062
367,-0.7255413157021452,-0.02776855050032104
368,-0.770901415405686,-0.029439576998127555
369,-0.8409206777717377,-0.026070654178463933
370,-0.8963301139466924,-0.029481477598260006
371,-0.912008944747115,-0.047994365063626504
372,-0.9257507416935222,-0.044297320267108
373,-0.9437448194454872,-0.033364737556811526
374,-0.9811823252834152,-0.029477249572282718
375,-1.0070725535312288,-0.027526039972645047
376,-1.0244111962017879,-0.028269490495979533
377,-1.0284045472509522,-0.03817605251049699
378,-1.0457238151593762,-0.041673709229445605
379,-1.0709250519039528,-0.040726089457093544
380,-1.096546825873813,-0.043072510616373495
381,-1.1135260723367648,-0.047444166102818666
382,-1.1220221061533897,-0.054007794067747444
383,-1.1576728826501952,-0.05267592995422412
384,-1.1923008783692974,-0.05008388788770915
385,-1.2217937733079587,-0.04522465698591838
386,-1.236752793096793,-0.05203889039212488
387,-1.247297782844089,-0.05628117335082301
388,-1.2551893114585877,-0.05087106848070467
389,-1.2622988018914225,-0.051845475690613964
390,-1.2688317124770616,-0.053016692318347776
391,-1.2730750588181874,-0.04934226522966187
392,-1.2798154325076545,-0.050404275709615434
393,-1.285234374950705,-0.053113950176646524
394,-1.2686870546583937,-0.057163523568663
395,-1.2535978862259805,-0.05452746965869515
396,-1.241293393204676,-0.04858141001662822
397,-1.2492837571700146,-0.05194784356390001
398,-1.263407454859915,-0.05267425940382469
399,-1.2834380702885286,-0.05116179239581463
400,-1.3166418051164663,-0.05624439430013014
401,-1.3437203801294548,-0.0581085400731992
402,-1.3635646379530173,-0.055537188340480305
403,-1.3810974925228543,-0.05556434863006728
404,-1.3990173850592524,-0.056128497936011726
405,-1.4169362617967212,-0.05637169824941173
406,-1.4210577051681523,-0.0559225804695843
407,-1.4247114635683882,-0.05693166795276008
408,-1.4308049441933697,-0.05908654681069035
409,-1.4341872633906683,-0.05969427675473448
410,-1.435773917317034,-0.058398020412282446
411,-1.4315258495542198,-0.05496344584462854
412,-1.4264927529692975,-0.05528333287157431
413,-1.4218698597289616,-0.05746754373623136
414,-1.4212653776281912,-0.05793354150745086
415,-1.4199809646395511,-0.0564065762922187
416,-1.41953557680311,-0.054629589244146064
417,-1.4211101721950192,-0.05559387699464765
418,-1.4248752317790199,-0.05562476924153246
419,-1.4294394476558994,-0.05480949997386655
420,-1.4275819903441103,-0.05498712728628755
421,-1.428910955003857,-0.05680431106828391
422,-1.4329653972409995,-0.06000148066304694
423,-1.437463570196435,-0.05741408403417566
424,-1.4402170983944371,-0.05563997031365965
425,-1.4420324869313323,-0.05511387871091625
426,-1.4459840832544355,-0.05566512569537317
427,-1.4509580532705284,-0.054943926610865924
428,-1.4550709846774341,-0.053034883429975775
429,-1.460649076308699,-0.05320365454325223
430,-1.4633438834694825,-0.05417383788747474
431,-1.463784408688186,-0.05727570047033347
432,-1.4627667814156362,-0.05441469017051707
433,-1.4630565966718772,-0.05294088101062328
434,-1.4661238046232048,-0.05397344737638659
435,-1.463120183955248,-0.053317868392441424
436,-1.461667945371702,-0.052601698104538915
437,-1.4621130731912644,-0.05281483466396205
438,-1.4625000202651581,-0.05339734589928009
439,-1.4612994936571901,-0.053329013490140194
440,-1.4567225924149296,-0.0516672822352127
441,-1.4554161574292925,-0.04849639742035134
442,-1.454704225961007,-0.047398013541042
443,-1.4541292642890757,-0.050004015891021956
444,-1.452440905269138,-0.050091354123035885
445,-1.450457397834121,-0.049722116353512515
446,-1.446795927444806,-0.048704594000814026
447,-1.4459832425149228,-0.04762789334503131
448,-1.4456804831066234,-0.04749830997339322
449,-1.4450331069306375,-0.04923740962804262
450,-1.4459408703208818,-0.050305013256659765
451,-1.4475552320205731,-0.050540615603154974
452,-1.4492539538198128,-0.04957538074500497
453,-1.4530508650277345,-0.049016085196880575
454,-1.455619726464245,-0.04904054559577505
455,-1.45634266166626,-0.049484100391260825
456,-1.45554834324479,-0.04906916623048454
457,-1.4551748357626495,-0.04873135643536017
458,-1.454446752011678,-0.048541363523549014
459,-1.453257166859145,-0.04745468952656623
460,-1.4511288908468967,-0.04743884181950165
461,-1.449138413373087,-0.04761966422218994
462,-1.4474239391662251,-0.04762881264153373
463,-1.4448225885544612,-0.04723718713253006
464,-1.4416831541120558,-0.046787379753736265
465,-1.4384215005465786,-0.04583287085990607
466,-1.4346413261062883,-0.045803245079333484
467,-1.4305417061507355,-0.045676640558822625
468,-1.425102705689747,-0.043972865616134164
469,-1.4189278163297945,-0.0427590765404599
470,-1.4118298603773485,-0.041291851051915296
471,-1.4042128765448765,-0.04326670487641861
472,-1.398239545001613,-0.04581917646252487
473,-1.397269521993432,-0.047690008612336444
474,-1.4003320865611053,-0.04736812207276662
475,-1.4039298275554128,-0.04569261304719029
476,-1.4076925584115387,-0.04417125597657174
477,-1.409734176476983,-0.04278376541841091
478,-1.4106312581958464,-0.04206761731768937
479,-1.4088561871653416,-0.04204221934428091
480,-1.407880010237944,-0.042778553210189287
481,-1.407963580132256,-0.042769737624120945
482,-1.4091405491846092,-0.04256196237327991
483,-1.4090226918083515,-0.0422614352303401
484,-1.4086900573255898,-0.041470366804792956
485,-1.4079918428402678,-0.04148194434638262
486,-1.4079134837732068,-0.041600710552795524
487,-1.406656086942797,-0.04193885318119555
488,-1.4042900839365198,-0.0412371502629082
489,-1.4016632224028265,-0.04158241403540603
490,-1.3994170890143205,-0.04126603918540158
491,-1.397890903771197,-0.04031649277901104
492,-1.3940736335933972,-0.04062483036215615
493,-1.3898433576242606,-0.04017606480082404
494,-1.3860001837886404,-0.03935463591442897
495,-1.3812055479335021,-0.039264758630509336
496,-1.377173500649198,-0.039082554931047106
497,-1.3721399181694713,-0.03822419985529937
498,-1.3663086636229154,-0.03788093548415465
499,-1.3605623536608535,-0.0366563035471662
500,-1.3547286965426102,-0.0355557824629511
501,-1.347993193677907,-0.03563751255035157
502,-1.340354483324547,-0.03450282723230529
503,-1.332379751556729,-0.0333648245431443
504,-1.325031827871634,-0.03248254085453895
505,-1.3169575820528274,-0.031944453424880455
506,-1.3083693886351269,-0.0314838468237058
507,-1.2992598988150845,-0.029819820327046567
508,-1.2907726472049412,-0.028524629752910965
509,-1.2810381500145867,-0.02774126183790929
510,-1.269117498488086,-0.026214322015907055
511,-1.25793017822924,-0.02439531417420161
512,-1.2473880127814803,-0.022998182372687772
513,-1.238085237105271,-0.022325523387862502
514,-1.2278956414936415,-0.021155688378200754
515,-1.2177469188813903,-0.019532594738116388
516,-1.2058021311231426,-0.017869992217840067
517,-1.1961903291804548,-0.016126055770451304
518,-1.1852612731282826,-0.01405001063713056
519,-1.173403832526216,-0.012263297264080812
520,-1.1634795102552034,-0.010888553202047409
521,-1.1515106369258767,-0.008533971286499931
522,-1.1388423859501495,-0.006011942235447456
523,-1.1277547545819642,-0.0031334540292284477
524,-1.1157595212502722,-0.001609985146934063
525,-1.1045237343731586,0.00012736194239360658
526,-1.0926090838791456,0.00273637276262812
527,-1.08094291929745,0.004405054609540442
528,-1.069474983400587,0.005807174594582744
529,-1.0568098745411154,0.008207651854144503
530,-1.0456985305576925,0.010407073159963254
531,-1.0340291673902602,0.012100904701877255
532,-1.0223699554730263,0.013621056213057058
533,-1.01237179094139,0.01562803425696248
534,-1.0012839480441005,0.01745494580631134
535,-0.9892410773945279,0.019486587143349637
536,-0.9777142923200459,0.020424759205248274
537,-0.9665530872481242,0.022165577234283813
538,-0.9555903223901389,0.024691410058319464
539,-0.9419304759400836,0.02666433379805331
540,-0.9289297186219957,0.027697082133058177
541,-0.9155258952336651,0.028261676924935905
542,-0.903157927250738,0.030616386712987595
543,-0.891132801470252,0.032102750141247
544,-0.8788825025176228,0.03334403203692462
545,-0.8648094387471266,0.03502248226426546
546,-0.8519909693602896,0.035931854426772235
547,-0.8390041970237503,0.0370026200942371
548,-0.8266384432665507,0.037787172419784104
549,-0.8133628965032611,0.03902553879134707
550,-0.8007560056371917,0.039469519366248186
551,-0.7882019629162537,0.03929537686606086
552,-0.7728747009010848,0.040610534770000206
553,-0.7590909960422848,0.041801914654441545
554,-0.7455525785100654,0.042078115260562474
555,-0.7321386038715366,0.04281639008317422
556,-0.718670406397694,0.043300236001099085
557,-0.7049305615949055,0.0438681481640915
558,-0.6891798745396159,0.04496611048988294
559,-0.6741622739365397,0.04544683798945451
560,-0.6591650323033413,0.04567660752404701
561,-0.6436668532376794,0.04685883898914447
562,-0.6279997360767018,0.047965616901004225
563,-0.6126086279914852,0.048784154195700265
564,-0.596922159962085,0.049007690835063504
565,-0.579046923495748,0.04968047943762749
566,-0.5611073129438992,0.050272519166238615
567,-0.5429427740353475,0.05152878020819113
568,-0.5256790400437652,0.05232588255776721
569,-0.507031063756396,0.053080024775522726
570,-0.4881204282292005,0.053923577884706184
571,-0.4704478386639924,0.05422203234979302
572,-0.4535538348926814,0.05456602963753948
573,-0.4350869269060034,0.055279418263402734
574,-0.41568849225317556,0.05582502692048541
575,-0.396250559291151,0.0567899289269209
576,-0.3783548087953135,0.05675850093408301
577,-0.3609335075891734,0.0572238471190816
578,-0.3418984291682877,0.057605326011773934
579,-0.32260770064151895,0.05802408755665096
580,-0.3030848230950004,0.058107621997242564
581,-0.2830877077878886,0.05874595891686783
582,-0.26377342170550494,0.05944082812172575
583,-0.2444928444289345,0.05968590963586857
584,-0.2246939578066552,0.06005768469362409
585,-0.204831225114328,0.0599328391421362
586,-0.18555702182608674,0.05988894535883993
587,-0.1680242372320184,0.060365843389339105
588,-0.15141692180213095,0.05983204829389751
589,-0.13410906556476548,0.059644725011055354
590,-0.1166941383469545,0.05982109589861477
591,-0.10006593593172489,0.059954130503442664
592,-0.08390575815719543,0.06031659788654905
593,-0.06748334475935,0.059953746562409135
594,-0.052318328191914044,0.05992903786666919
595,-0.03595613866186969,0.06090268644544863
596,-0.019533725264024197,0.06053983512130859
597,-0.003880909570955742,0.06021718197346794
598,0.010888016773843564,0.06057048124915151
599,0.02639288848708812,0.06033739256133192
600,0.04174918107489504,0.06043071539172949
601,0.05669246787136504,0.05976693507764977
602,0.0715485863127228,0.060951298060941184
603,0.08614863103168778,0.061283648793373655
604,0.09968971913417966,0.06116912735920565
605,0.11476421314284203,0.0610047039138017
606,0.12920610616230335,0.06134934117201013
607,0.1442498784217856,0.06181185638776297
608,0.15934351176976658,0.061815768326732405
609,0.1767036374761315,0.0623870130806856
610,0.19370418421242344,0.0626788328035433
611,0.2117636875651885,0.06341752469300128
612,0.23008484205632407,0.06311142823641158
613,0.24923343928979688,0.06335058399251167
614,0.26790460017693934,0.06300978757457655
615,0.28793787696391765,0.061380969288575435
616,0.30875410129160813,0.05991078255201102
617,0.3304717150212138,0.05921922414662432
618,0.3528652053110864,0.05832260312027255
619,0.37639217755314214,0.05796578541730237
620,0.40104131733610515,0.0577960663298851
621,0.4220692273147128,0.056138552387440005
622,0.4353594202196614,0.049981011293244074
623,0.44150356757129244,0.03936404307059644
624,0.44772271978632305,0.02664045059450096
625,0.4550119309416973,0.012850128737289917
626,0.4691267316279528,0.0010938560678022265
627,0.4899079177505776,-0.005816165915741775
628,0.5148031321013372,-0.010374810219144113
629,0.5432643516867983,-0.01094763248738466
630,0.5744038888865708,-0.009676452965315083
631,0.6061191901394398,-0.008365585298371234
632,0.6364311628235895,-0.006542209617663496
633,0.6666725757798577,-0.005739961109876315
634,0.6948688262736443,-0.003001496392428668
635,0.721498597201061,-0.000899764412655592
636,0.7480269619141099,-0.002206855449047001
637,0.7726311963852253,-0.003931260442815169
638,0.7973606626249086,-0.0031187135137971038
639,0.8208363233558102,-7.621851033592801e-05
640,0.842561167557988,0.009341884447034125
641,0.8561751097323655,0.020215457256028423
642,0.8654104088995747,0.03283298227745216
643,0.8718503320542844,0.046685954223285746
644,0.8809000512126102,0.06210592945729176
645,0.8946115619011022,0.0752309266343538
646,0.9108471199324006,0.08533211519158242
647,0.9278865479489834,0.09322929496694707
648,0.946055492309921,0.10259447408183267
649,0.964050532563733,0.11101585328368828
650,0.9829918572961489,0.11873800407367054
651,1.0038600075870994,0.1264229669212819
652,1.0211099630598006,0.13339440549884218
653,1.0285272918517077,0.13532484535367956
654,1.017031780861216,0.12422807431181555
655,0.9908225534524434,0.11072470639197571
656,0.9638092293278442,0.0980037705762969
657,0.9372483253567735,0.08687327414049856
658,0.9122069704507252,0.07801124216751866
659,0.8889763474169502,0.07280244667503422
660,0.8667565873372228,0.06949323039719935
661,0.8445495419478168,0.06661969090329589
662,0.823656891751663,0.06528188288504788
663,0.8024046625854361,0.06366464983570401
664,0.7821808798156061,0.062069650957247466
665,0.7620883042579689,0.06097400894746635
666,0.7472741184206474,0.06093357378956834
667,0.7357385344455389,0.0602071495399334
668,0.7279149170938581,0.05980279730801815
669,0.7213526853635601,0.057893430524127654
670,0.7213575970787821,0.05583734224436763
671,0.7265875223537244,0.05380246600611186
672,0.7365853838119345,0.05145980760030425
673,0.7542360450040083,0.049814959316698985
674,0.7778388320947496,0.04665510519707375
675,0.8073021643215638,0.04418053086370154
676,0.8418961538179746,0.04179915118536286
677,0.8870359014141318,0.03851566099672741
678,0.9356590650747674,0.03405014221879387
679,0.9885023534543415,0.02985970897145821
680,1.0499682271325161,0.026040367190921575
681,1.1141560914654127,0.021310347913724506
682,1.1811899894716593,0.01707205432967981
683,1.2539645962825434,0.013275986274551696
684,1.3361721040365615,0.010312727439881812
685,1.416125709943513,0.007121060982173515
686,1.4997256689777707,0.003753983380161949
687,1.5833880231423632,0.00036362978980158744
688,1.66049799167389,-0.0034114507477823745
689,1.7422995202381981,-0.005249422582500809
690,1.821011263919496,-0.0069442284159261574
691,1.8961384709276892,-0.008346454131690308
692,1.976817781290422,-0.009815207884964476
693,2.0493051165984917,-0.009842227069241831
694,2.120215030884757,-0.00948763740335128
695,2.1898669638556667,-0.00911437474786224
696,2.2568635913780843,-0.01002628745004855
697,2.315755462861619,-0.011900925577606651
698,2.3747677551615345,-0.013213039809027752
699,2.4353738053758227,-0.013631206813009687
700,2.490584529244892,-0.013122580325482075
701,2.547139997100553,-0.013076207319127968
702,2.601640607588078,-0.013228177636641024
703,2.651363074172655,-0.013149643720846978
704,2.698530008146407,-0.01582980841329273
705,2.7449691946355963,-0.016736908170018622
706,2.789098156850792,-0.0165544593215828
707,2.830348596217384,-0.017230901276408986
708,2.8719792357136997,-0.0189848535890276
709,2.912052333072097,-0.02082456658868385
710,2.950975739726144,-0.022199289847734664
711,2.986243805163764,-0.023393257316122112
712,3.024057230951761,-0.02493527414208456
713,3.0623578207197766,-0.026538388361952076
714,3.099592233208273,-0.02758892633079336
715,3.1368603545025815,-0.028189676608919346
716,3.169333466985911,-0.030251350466636708
717,3.2046177411756975,-0.03245011099901082
718,3.2396303680365386,-0.03473293777645244
719,3.2711725889993315,-0.036863678723585286
720,3.3012518863041036,-0.04076005632515313
721,3.3298078782922342,-0.04387653518775393
722,3.3592141789632213,-0.04583840502299881
723,3.392321659861825,-0.04741503581306213
724,3.427759267659756,-0.04786937774051564
725,3.460772237208613,-0.04841885135666823
726,3.491266841555072,-0.04968823570669409
727,3.5186308951492924,-0.051013914218490664
728,3.5466875620714093,-0.05313357667994935
729,3.5699487131773346,-0.05419696652120808
730,3.595802226805904,-0.054863386207102835
731,3.624363557761686,-0.05558956530776394
732,3.6544601185191943,-0.05546794474488387
733,3.6819439577841804,-0.055994252302347114
734,3.708248419616313,-0.05752995592254835
735,3.7344885073629337,-0.058984910668796825
736,3.760758681713121,-0.06082995701800605
737,3.79179079121409,-0.06190071453653466
738,3.821292636925142,-0.06280001825233698
739,3.851914036076311,-0.06321790340878618
740,3.8826688662102904,-0.06410320742808724
741,3.9097461243329374,-0.06565395952958612
742,3.9417384724134394,-0.06641003664008065
743,3.973424674153946,-0.06650794606778089
744,4.002710317407645,-0.06646892238941822
745,4.0334751437322,-0.06622537181760378
746,4.0600177556165695,-0.06917837354032239
747,4.084944238375174,-0.07336108138080272
748,4.1068721171383,-0.07773643143595718
749,4.124073666453292,-0.08335287747607088
750,4.14267453453578,-0.09124802754145332
751,4.162020992231697,-0.09703868933981542
752,4.183619167099213,-0.10103197937215658
753,4.207811844871288,-0.10226314918219591
754,4.236875752545207,-0.10332311172268063
755,4.269681030371032,-0.10391179102331595
756,4.300539049824634,-0.10391924774212628
757,4.3303519905131616,-0.103758875166511
758,4.359113587984154,-0.10317816742408097
759,4.3888856556733025,-0.10256453621804323
760,4.419942347880196,-0.10147551645364274
761,4.451745136705732,-0.10079920462201171
762,4.481759504664828,-0.10034712048952507
763,4.505029888675315,-0.10232515782306784
764,4.528625507704447,-0.10423671075803412
765,4.552127405589069,-0.10631312813766651
766,4.576046882540947,-0.10847984465759535
767,4.598812307041659,-0.11038574580901474
768,4.623955528487616,-0.11343679474454739
769,4.64749491243992,-0.11517871970016967
770,4.668852537089229,-0.1173177683797494
771,4.690156150432331,-0.12025396481151215
772,4.718739479643664,-0.12201543131752278
773,4.740166689205737,-0.12412527825071074
774,4.761523678709434,-0.12602747987209456
775,4.784313639316957,-0.12966219573154444
776,4.8067917147417685,-0.13316456626383463
777,4.828713359607576,-0.1368912757055511
778,4.847428232630279,-0.13938456299900218
779,4.86752431023147,-0.14244122007914858
780,4.890007489353383,-0.14518092119760823
781,4.914867854016372,-0.14614971603700658
782,4.938975408402885,-0.1482235507257992
783,4.956193971256927,-0.15100489937173178
784,4.977173726677282,-0.15368593221853244
785,5.000745209474668,-0.15573314785177292
786,5.0257796723995565,-0.15611112892706724
787,5.050125114648532,-0.15799436836451047
788,5.0593897161452155,-0.16468574424938098
789,5.060648727769969,-0.17582264786767351
790,5.062540391044591,-0.18802492888657504
791,5.072833392338557,-0.19858266259151816
792,5.089275187485444,-0.2008806813405218
793,5.1105474439337515,-0.20295309205293208
794,5.130072152514996,-0.2057029890949091
795,5.150801409781519,-0.2094091518403747
796,5.173403081425303,-0.21208517287409023
