WAVELENGTH,PC1,PC2
346,0.3027642192687101,0.09096620467066871
347,0.26152263542137394,0.06974272331565046
348,0.18791993118689418,0.04673988618036165
349,-0.00551730322327764,0.07664686607142979
350,-0.15558277390341124,0.1035742452577435
351,-0.2700532805164219,0.12812340685596688
352,-0.315900219924474,0.10757086022835416
353,-0.3759846256650279,0.09838003926576737
354,-0.46620124346833536,0.11075654022747483
355,-0.5197945695302414,0.09227141781043031
356,-0.5743536454782704,0.07525850387957782
357,-0.6514871427493049,0.07549923841400968
358,-0.7041116620651475,0.09053270834468322
359,-0.7492782473826011,0.10613184254672631
360,-0.8006719284990973,0.10046416266877818
361,-0.8613257409454289,0.0864195308440272
362,-0.9256484414550922,0.06963736991353567
363,-0.9686597516920724,0.07844235233724893
364,-1.0246245879749352,0.09075295699120928
365,-1.0921724328044935,0.10672452082333163
366,-1.1307999128847268,0.10740535127792643
367,-1.1996948189771472,0.11111576120867055
368,-1.3074835487258902,0.125298896209691
369,-1.3847750535882513,0.12648738083098618
370,-1.4450794257154644,0.11909821018139126
371,-1.4842520478065182,0.1014687646125795
372,-1.5408993232106718,0.10677415091539301
373,-1.6002421801357187,0.11757440716076945
374,-1.6522961202046103,0.11712363220503336
375,-1.6924852402147066,0.1166513180407355
376,-1.7236687387574925,0.1167527049805623
377,-1.7499553448049077,0.12400114858539243
378,-1.7972474729336936,0.12313745584920117
379,-1.8569949773326846,0.1171834823634178
380,-1.8981091002074348,0.1187738200717686
381,-1.9430128030338967,0.12200893611123653
382,-1.9911983586452962,0.12715260950912705
383,-2.0386344178135363,0.13265833021767992
384,-2.0831026818200034,0.136621311100206
385,-2.12318299155164,0.13775566085615717
386,-2.162081284089792,0.13922738490489775
387,-2.186563726425267,0.14160064845441914
388,-2.1883655106646844,0.14160990444547392
389,-2.2061468701281144,0.14721456799618882
390,-2.224761650235875,0.15350704902648243
391,-2.2267634707517514,0.15311655569764776
392,-2.2213585027726914,0.15619938435864425
393,-2.212804844086695,0.16090601672374163
394,-2.2047917087330418,0.17095442746552056
395,-2.1750732572772598,0.16672721355063638
396,-2.1388477944882407,0.15511990740269613
397,-2.1623774770014523,0.1551039555583494
398,-2.1938212440215783,0.15461457379751534
399,-2.2325918371335236,0.1529301538380177
400,-2.2794266740025875,0.16071015140847833
401,-2.3213724349994305,0.1643571202519725
402,-2.3579511792549868,0.16161812307278461
403,-2.3810968020326455,0.16641800684731348
404,-2.402114675609056,0.1706721527364867
405,-2.4229663031378674,0.17251277391655967
406,-2.4316099608326587,0.17189512224638914
407,-2.437347449816964,0.1718690965703879
408,-2.444996292185461,0.17059845393445958
409,-2.446203676865815,0.16825796614184924
410,-2.4450668333937515,0.16836802622679922
411,-2.442897641525741,0.1738908245131896
412,-2.4319165784405476,0.17217040215236834
413,-2.419552510255008,0.1684227001459871
414,-2.4148524092255705,0.16977800439686574
415,-2.4139401704658088,0.16781985574761726
416,-2.4131566281986996,0.16605289212500693
417,-2.4078865920536368,0.16764485060804404
418,-2.404826905600215,0.1669565258986631
419,-2.404183417585763,0.16445785712170236
420,-2.4099926266838634,0.15927025394277947
421,-2.4153853746573613,0.16004959070092195
422,-2.419995088314445,0.1644359488783908
423,-2.425932770840191,0.16392878150910703
424,-2.4342031990202377,0.16387385790584988
425,-2.445214779638154,0.16449828241696185
426,-2.4522151628722857,0.16087371771994846
427,-2.4634008089500017,0.160036089514647
428,-2.4785385051984488,0.16182289858044968
429,-2.48923897598005,0.1616967054734232
430,-2.4986644132453475,0.1607666326669721
431,-2.507034263846219,0.15938064158259505
432,-2.51329070469172,0.15823903931000433
433,-2.517522685630104,0.1576456034335641
434,-2.5195458733648226,0.15763500510170583
435,-2.5230342858162453,0.15712696565803397
436,-2.5244182569509506,0.1562942128171016
437,-2.5210924824399026,0.157095156591897
438,-2.5173203242066737,0.15707367678873557
439,-2.5131381568461064,0.15869226931610503
440,-2.5087756817385385,0.1635149311597836
441,-2.501952195205115,0.16663355955800535
442,-2.4933330276791423,0.16940277824770003
443,-2.482759594975365,0.1716382690303619
444,-2.4700210511505376,0.17287883619545
445,-2.455419353049789,0.17474222247448432
446,-2.4361269227752747,0.1784598341760391
447,-2.419099549985985,0.1846751731344629
448,-2.402839550633653,0.19008382006463237
449,-2.386748891641118,0.1916146883583433
450,-2.376048664456297,0.1944860015332404
451,-2.3680298189236444,0.19812507283487868
452,-2.362619819443001,0.20177562746867614
453,-2.3519987299124883,0.20571217622145682
454,-2.3421596974692984,0.20950344710826818
455,-2.3371764393184167,0.21240123886473955
456,-2.3304943067079638,0.21421456956342086
457,-2.3242676987772906,0.21528913082653653
458,-2.319842612302386,0.21640707775174256
459,-2.317600199997585,0.21838375818560649
460,-2.315325355506802,0.22021664184974446
461,-2.3121640964182246,0.22254131281128256
462,-2.309987910344872,0.22260142545261094
463,-2.307957211864364,0.22255625435726714
464,-2.305534035693503,0.22340162399749583
465,-2.3030695418415488,0.22397299327237655
466,-2.300409031336133,0.22503859982262645
467,-2.29739245594067,0.22703853848141334
468,-2.2919403063682786,0.2265315956838777
469,-2.2827248418422563,0.2267396824022441
470,-2.2679246020957007,0.22928509598352764
471,-2.2554690780784803,0.23047089819518718
472,-2.248718483028191,0.2303250691805222
473,-2.253688560382431,0.2274016935980292
474,-2.268067627331897,0.2263062865608196
475,-2.2784253769925855,0.22720464994705364
476,-2.280104598478969,0.23013196958916288
477,-2.2730604153034197,0.23332817562999686
478,-2.2653540805142427,0.23575430773868805
479,-2.2580836252430725,0.23734604504619813
480,-2.2538089266123142,0.23959352088151992
481,-2.249753491451738,0.24183315813394007
482,-2.2464530284098343,0.24420897237207548
483,-2.2399537907912404,0.24496967387622523
484,-2.233516102627453,0.24686844181380183
485,-2.2271844308134705,0.25004443332431536
486,-2.2191067136843445,0.2513573890398352
487,-2.206905719651465,0.2548802937468577
488,-2.192002303026641,0.26013538738230274
489,-2.176051335454506,0.26520592669454235
490,-2.158157810736821,0.269767227211233
491,-2.1380660434545637,0.27455999719607915
492,-2.1133205281567933,0.2799096668793263
493,-2.0873393790541046,0.285698608095041
494,-2.059985989719974,0.2917748564867803
495,-2.0247206755405864,0.2988668299354737
496,-1.9885383688576637,0.30610894196261024
497,-1.9474571036761503,0.3155430317348565
498,-1.9032957508509396,0.3247529572750765
499,-1.8554935069209526,0.33480965678504765
500,-1.804859719486131,0.34569275352535134
501,-1.7495856145689226,0.35580782243422604
502,-1.6883906133886244,0.36619396129928
503,-1.6236827587121616,0.37671091868386103
504,-1.5584604289494814,0.3869441504644257
505,-1.4889171018532374,0.39732037535617476
506,-1.416334875634033,0.4073548663068628
507,-1.3304857252078857,0.42076462044930063
508,-1.2441778746627061,0.43341677487166846
509,-1.155660553734845,0.4457306500402688
510,-1.0634072573291653,0.4576066780912087
511,-0.9642894378959586,0.46943687473592227
512,-0.8641461278685132,0.4807820146083671
513,-0.7659566517835055,0.4910882899911562
514,-0.6674992784407608,0.501006862898902
515,-0.5651108340225238,0.5105625473032411
516,-0.4566040413190307,0.5190861076479392
517,-0.3513039326059093,0.5284505705136555
518,-0.2458749875317598,0.537087955440319
519,-0.1405552693486143,0.5452613851993703
520,-0.03513971864453592,0.5520801846689101
521,0.07163681123020282,0.5582771814756213
522,0.17873815477328522,0.5636327736889754
523,0.27562922726376826,0.5694816667913097
524,0.37337552115787254,0.5743285188966522
525,0.46901379517896097,0.5783002732939141
526,0.5543875677778353,0.5826747372665977
527,0.6322041187266716,0.5854570119342312
528,0.7072611059452122,0.5876975956832501
529,0.7809254723851002,0.5895821782484445
530,0.8466091218683366,0.5919461399002481
531,0.9085698094285154,0.5946765682231728
532,0.9673356756036069,0.5968470058602336
533,1.0178690981928185,0.5994607865000228
534,1.0664179972469996,0.6019880581677273
535,1.1136301299945222,0.6051752326662363
536,1.1515128602987459,0.6081997004142713
537,1.1865657410107944,0.6097596715017735
538,1.2208000808806543,0.6110246378278767
539,1.250157767706303,0.6133146428926063
540,1.2766585450717056,0.6150648149916956
541,1.2999420180761438,0.6165474811537464
542,1.3167575568819343,0.6180677263669105
543,1.3335419928762995,0.619052036099741
544,1.351271913798269,0.6201203818060566
545,1.3732668572736941,0.6221782164256255
546,1.3960685953722267,0.6237015217532295
547,1.4164874411236887,0.6243923050418104
548,1.434415615905908,0.624773603533846
549,1.4497387455848272,0.625038877196732
550,1.462636583907218,0.6250797612988296
551,1.4744196830453358,0.625146666578043
552,1.4831484346902089,0.625589299149644
553,1.4892365987976743,0.626023153667415
554,1.4927849885963222,0.626774087224209
555,1.491333055711002,0.6272092570838937
556,1.4864598586152646,0.627955845263086
557,1.476427598166715,0.627228759705598
558,1.463510848171261,0.627512878553902
559,1.4479777437914134,0.6279216792331167
560,1.4309335503388736,0.6287512644859661
561,1.4127766500964558,0.6295833780401261
562,1.393738505550781,0.6322826708506679
563,1.3725072011052788,0.6350517570685884
564,1.3500529258315905,0.6370878735854776
565,1.3218466485919087,0.6409676554503794
566,1.2918533093797293,0.6451470266018002
567,1.2572773468404588,0.6473164887618127
568,1.2212922117868084,0.6494089010777103
569,1.1810510073186038,0.6518476100278278
570,1.1381781708285308,0.6541070095433705
571,1.0938701619419893,0.6566242761946525
572,1.051579168941966,0.6579140882935909
573,1.008695057066462,0.6595423750981838
574,0.9654723141991222,0.6613498344952332
575,0.9233081724948256,0.6623736437572125
576,0.884142776631627,0.6636490084608647
577,0.8474072290885366,0.6649522246979909
578,0.8105829990031836,0.6664422865568496
579,0.7761693611910776,0.6670902452396423
580,0.7428379893805505,0.6681450738696884
581,0.7093915478057329,0.6687319963694951
582,0.6795561877825588,0.6692157850035474
583,0.6506185763234595,0.6696661850717911
584,0.6221013171356659,0.6702002084882851
585,0.5911268399092591,0.6700404022826744
586,0.5609724964465799,0.6696364364269346
587,0.5333690320627177,0.6695813108365116
588,0.5081413203002424,0.6700259952740207
589,0.4850488922340288,0.6698816419231631
590,0.46315524444078976,0.6698355299531051
591,0.443450684008251,0.670205305233645
592,0.42688080999235484,0.6707071749790144
593,0.41224323963433984,0.6709695860092688
594,0.3987125415182743,0.671657011592864
595,0.38603456808001385,0.672120602483693
596,0.37412136342803687,0.6719652598765296
597,0.36263421591825273,0.6715005808828093
598,0.35057542839057704,0.6711501577937883
599,0.3380054209350661,0.6709254246375795
600,0.32488864915663984,0.6705410003060172
601,0.31121957976379344,0.6700368969673536
602,0.29456615017650195,0.6693911028367107
603,0.27800842348278526,0.6684862564867007
604,0.26078645995017846,0.6676541449077011
605,0.23920239954322292,0.6670741721577098
606,0.2163294109697969,0.666298251348664
607,0.18966042668004884,0.6644427930533292
608,0.15975866141348086,0.6619484815089208
609,0.1293848940713107,0.6602586620906026
610,0.09798716523021,0.6578243443753918
611,0.06522623382963395,0.6557043821341103
612,0.03153516575485173,0.6528187921354279
613,-0.003049783153147581,0.6502771276490888
614,-0.03837004208685159,0.6472416180353582
615,-0.07530042612681272,0.6444015027604373
616,-0.10974085311442114,0.6411710696962095
617,-0.1412116650895212,0.6386202537890521
618,-0.17094433238569404,0.6365243718237336
619,-0.19780465537438688,0.6345472909533485
620,-0.22117455513634396,0.6334160593614706
621,-0.24574684381602743,0.6299109722283707
622,-0.27452298504569134,0.6194468915610037
623,-0.30417761856472797,0.6044300692315473
624,-0.33120612721763676,0.5905236391266601
625,-0.35564589021778115,0.5789885453247726
626,-0.3758215919511514,0.572417530766118
627,-0.38937826163211825,0.5713920581188102
628,-0.39853698652968866,0.5741047326460286
629,-0.4034929446680282,0.5783417753584751
630,-0.405204787191194,0.5825579905098746
631,-0.4061484022119797,0.5865584622794527
632,-0.40739167262607007,0.5895432055971127
633,-0.4128246408807682,0.5919591821130133
634,-0.42218557806789814,0.5936253266723434
635,-0.4358082299353089,0.5943730792140681
636,-0.4557560978143246,0.5942513238272371
637,-0.48645323942111923,0.5910822963139168
638,-0.5206474289693337,0.5882232813068692
639,-0.5583840185811736,0.5855024587005058
640,-0.6035092745726154,0.5834229828722262
641,-0.6497201358451233,0.5807116749650392
642,-0.6983705678656897,0.5763965595007668
643,-0.7494577037648479,0.5711541764550532
644,-0.8040123275875979,0.5653728473052901
645,-0.8609380455608534,0.5596971632846005
646,-0.9190450014962145,0.5546637822020041
647,-0.9756159039250896,0.5491607424892072
648,-1.0341562964020905,0.5434337015136629
649,-1.0898663582437207,0.5381182638548178
650,-1.1419728387497106,0.5338646170167826
651,-1.1880342120511145,0.5309319699650303
652,-1.2301453734006118,0.5240536656878622
653,-1.2710508024923601,0.5143616949323341
654,-1.3118434494979214,0.5018388141977467
655,-1.34867506456399,0.4887771795677539
656,-1.3880145632316543,0.47673144471161
657,-1.4297074939622392,0.4659724553385962
658,-1.4712285908718405,0.4567887127833573
659,-1.5168610321699447,0.447060706865359
660,-1.5646833777651727,0.43697350199345647
661,-1.6161078459222498,0.4262515953764921
662,-1.6657883317269007,0.4158267116122257
663,-1.715715887366029,0.40488269495255486
664,-1.7659366348513246,0.39313354752051555
665,-1.8165687736314904,0.3815244204073216
666,-1.8606454518990112,0.37092241863336084
667,-1.8995203568661607,0.36186580929792894
668,-1.9355438706172505,0.35320390203959506
669,-1.9690953149937196,0.344737367956523
670,-1.9954179742690579,0.33735984081951315
671,-2.017363751895057,0.33080040859877835
672,-2.035455965052151,0.32537400664227784
673,-2.047932327880253,0.3200426905843245
674,-2.0547595941347176,0.31591569439620965
675,-2.057547670898857,0.31252993104345
676,-2.0558487049910927,0.31075576055541415
677,-2.036780152937601,0.31564228237589836
678,-2.0128092480378648,0.32072131149140526
679,-1.9825230762485686,0.3268877730661026
680,-1.9418505689735615,0.33440925968381563
681,-1.889109142410686,0.3445140718261169
682,-1.8259903933963229,0.35650308195363123
683,-1.750369834864717,0.37025705362741407
684,-1.6526623681495085,0.3875525648477248
685,-1.5392766146807484,0.40562023435413114
686,-1.4066898818541833,0.42528135025713326
687,-1.2358127764631217,0.45790155855028625
688,-1.0542287951834897,0.4894519944923566
689,-0.8421237992388882,0.5212521231735195
690,-0.6186009641731013,0.5513105210169734
691,-0.3884851766176061,0.5789590848258004
692,-0.13050061051912054,0.6041113481743533
693,0.12476128894616434,0.625454794467079
694,0.388251810939976,0.6432173928579596
695,0.6657008991358927,0.6561724528376287
696,0.944839265002177,0.6643561369378639
697,1.2095648041626925,0.6689808801913086
698,1.4755070491308642,0.6711126199054511
699,1.7457555358771044,0.6701970073317459
700,1.993813548255919,0.6665032060453058
701,2.246707469245886,0.659991742033266
702,2.4893249255010406,0.6519623491337889
703,2.7143085877491067,0.6428339719566954
704,2.93964636338437,0.6291773207669006
705,3.1570016928211473,0.6157167741233774
706,3.360422444729561,0.6024555576315411
707,3.540558636396264,0.585319702962891
708,3.7225678355126726,0.5645364065242034
709,3.8950223716165207,0.5442128386047702
710,4.0555406583213705,0.5249829365042464
711,4.204682375686985,0.5069462623769647
712,4.355091620785816,0.48695659727198637
713,4.4997333290077055,0.4672191925514819
714,4.637930319209038,0.44858669194341777
715,4.768379322641219,0.4305445444776607
716,4.886104209729176,0.4134939196332195
717,4.999903088744179,0.392772619606143
718,5.109582476585005,0.37134195518341956
719,5.210530479420948,0.35051738480524036
720,5.305014460102363,0.32995198436473855
721,5.389335685286579,0.3127450590143956
722,5.472991030466868,0.29612565099936267
723,5.5579587328855595,0.27980012012272143
724,5.632886399791328,0.26534808831942824
725,5.705622975990954,0.250486127369087
726,5.772451994187225,0.2363296992741322
727,5.827604545835107,0.22004053791510056
728,5.880053103160553,0.20497359182072317
729,5.924249568623674,0.19151163194596582
730,5.9644928549446545,0.1794317333855977
731,6.001088286838809,0.16773519128454217
732,6.034542154328855,0.15673793587221613
733,6.066349175854916,0.145949252651173
734,6.095644413354588,0.13615364878845798
735,6.123061684979096,0.12723298534325203
736,6.1513498438738985,0.11864071417738681
737,6.1762052892134855,0.11069620442713658
738,6.201534705440874,0.10297081399929307
739,6.226387660067399,0.0961794598982746
740,6.249945241704274,0.09064543241387288
741,6.269993151140845,0.08464048756804747
742,6.291484657628063,0.07963734422537638
743,6.31294773762331,0.07513976825322205
744,6.334038485083179,0.07091441630815892
745,6.35333862119909,0.0684231443825093
746,6.367786121346384,0.0641995947782412
747,6.383966558501859,0.05962616989617413
748,6.400427809423101,0.0553665874306044
749,6.415419488736321,0.051336880205729865
750,6.42572277628456,0.04639173563042008
751,6.4388515869961624,0.041700004215770824
752,6.4523147172956845,0.03757201359992042
753,6.464191958817601,0.03398514882417262
754,6.481270296129575,0.03154409627990528
755,6.495140198988641,0.0299729686266666
756,6.510105321817796,0.029021201924249628
757,6.52449616179884,0.02808967480276716
758,6.53840168663147,0.028271650688704995
759,6.553443598683827,0.028273037658656224
760,6.569865188595601,0.028441044484016877
761,6.585487595753411,0.02886988019686122
762,6.599492770652225,0.02846679509804539
763,6.612089681436833,0.026340125239270012
764,6.622497839635166,0.025177089019402958
765,6.631879817747632,0.024265244041586833
766,6.642241696985489,0.023389378775474676
767,6.656936429487777,0.02355246032343274
768,6.669810397275268,0.022707135241291115
769,6.681438836815763,0.022939232165141134
770,6.693760555295811,0.0237805868679699
771,6.70642662910968,0.023955337455084633
772,6.716880755766321,0.02356419724353807
773,6.731258401518959,0.02275514918317958
774,6.744354459875094,0.02264248527893854
775,6.758186203548015,0.021920501110423426
776,6.77270730814859,0.021405771691468914
777,6.7826077765837125,0.021052515698791508
778,6.795311663789952,0.020358564975927893
779,6.808745536975974,0.020953680986709786
780,6.823919543322259,0.021679646206424735
781,6.8405491977810815,0.0214303087769558
782,6.85684696167828,0.02148364721106033
783,6.868227716520033,0.02103332274852488
784,6.879720432177671,0.0207295406963307
785,6.895316623312927,0.020694576735390106
786,6.915811395730572,0.02122360431814837
787,6.933830512495641,0.02412583486079973
788,6.958307503813829,0.023455109499009863
789,6.97596660392491,0.02024641299786733
790,6.983942829200345,0.01575807802047574
791,6.98631236088224,0.012813857328459506
792,6.999381404720427,0.011752997752967734
793,7.01593044788827,0.012689164887601146
794,7.033233071724603,0.013676917183736845
795,7.048315118840477,0.014224987193563425
796,7.060966845143437,0.014807739585879078
797,7.0750246857634105,0.014151241053098883
798,7.093883918705707,0.014288849129628828
799,7.106579101223883,0.014396670864645448
800,7.119864744362738,0.01398346380438178
801,7.135886679179431,0.013291797195747532
802,7.150091695860166,0.01340498020128516
803,7.158423760835195,0.013054385322143617
804,7.171310952665221,0.012207181824802616
805,7.1814781653658075,0.01160479800557854
806,7.189561332219557,0.01121403928510127
807,7.200087968225382,0.009723913670890509
808,7.207694133102416,0.009807146960825132
809,7.21687218819073,0.009201211800850716
810,7.225134239175002,0.009088210264847981
811,7.232695916980505,0.009107623619372614
812,7.238741061215646,0.00942678192320659
