WAVELENGTH,PC1,PC2
346,-0.012034010423864115,0.013152509306229779
347,-0.1580195400697319,0.01973863371541162
348,-0.3673008095915677,0.026123774260957498
349,-0.4490740985783175,0.004677351666806033
350,-0.5362821994169695,0.010289192592732341
351,-0.6275828250464264,0.0404772170941355
352,-0.6980783514028562,0.03748692560944608
353,-0.7503380327170616,0.02517937614677954
354,-0.7825628424602392,0.0058133936400449615
355,-0.8650864171468948,0.0151177847688221
356,-0.920360485970745,0.033708749373386665
357,-0.9054215343638774,0.06091594567791813
358,-0.9169782753180117,0.0423101372284792
359,-0.954302218976971,0.017509860065678697
360,-1.0502791747125322,0.03812223234855155
361,-1.101842328154098,0.06317675534414945
362,-1.1289611004800715,0.08687689371817514
363,-1.168049915330508,0.06846146507914369
364,-1.219264462456544,0.05375511937063026
365,-1.282676745527236,0.04199087931152776
366,-1.3226120465035143,0.05731604255346148
367,-1.3767997198654551,0.06412355769638195
368,-1.4535027103507436,0.05664551917665537
369,-1.5384408608527025,0.05121043386702654
370,-1.6088096736914572,0.04526835788913036
371,-1.6475887004847247,0.03749302209509016
372,-1.670762255949479,0.05747822225190974
373,-1.6894147802252883,0.07944047440504963
374,-1.7186264096056338,0.07033287116790322
375,-1.7409229889928535,0.06431364303383506
376,-1.761004329896689,0.05889789802862848
377,-1.797495438541707,0.045013897278128656
378,-1.8334455312880358,0.04228030224552133
379,-1.867646749787324,0.04663250229811591
380,-1.8931056615812032,0.038813363513307046
381,-1.9213507082892207,0.036013388277530436
382,-1.952866237328179,0.03718694585391321
383,-1.9877423871571147,0.04303624508611279
384,-2.023168842617627,0.04407563822268853
385,-2.059126424424082,0.03805624655764318
386,-2.0767706000922104,0.037768715959357414
387,-2.0873391620964985,0.03661444290272272
388,-2.092863449708969,0.03159454373948515
389,-2.0934748989570235,0.026735936917671514
390,-2.092540869345807,0.023066891104814115
391,-2.092372093989458,0.028810538743478033
392,-2.080491300903547,0.0219213664097188
393,-2.0628932393475012,0.010750602283543428
394,-2.040083811327337,0.006775622648433605
395,-2.018005807811691,0.00327065076273312
396,-1.999887725249122,0.0010107027936720313
397,-2.0061123297601893,0.007370188195736427
398,-2.026096063979385,0.010203189874413196
399,-2.0580810719400784,0.010249816612630648
400,-2.0786187711553534,0.0049691064589875164
401,-2.0982972429573765,0.00178321452158529
402,-2.1179087837663615,0.0009182023568297041
403,-2.134453069876717,-0.006122731322576826
404,-2.148536669410274,-0.013759265950546211
405,-2.158708314741412,-0.020897190172563928
406,-2.156215583168656,-0.018119238897150988
407,-2.151731266139583,-0.01717180953028545
408,-2.144512537951197,-0.023083528329090122
409,-2.1351125885069124,-0.027048916595241407
410,-2.1269561540643513,-0.03031767763094431
411,-2.1225332125976424,-0.033922311887925986
412,-2.1109266854774558,-0.034216953029665396
413,-2.096901810546674,-0.03411445690927768
414,-2.0801040346070776,-0.037850299885890115
415,-2.0717165206147268,-0.03701903487701896
416,-2.067367171133974,-0.03490112784320983
417,-2.0673438368287007,-0.038232285500419946
418,-2.0635909473523264,-0.037015444622361025
419,-2.057803825245011,-0.03372449462294014
420,-2.0514494398252525,-0.03489123245152252
421,-2.052494733550238,-0.036287498996249494
422,-2.0571364946090056,-0.03887968291553287
423,-2.0519141639137715,-0.04283526155090749
424,-2.051548720883035,-0.04525562603487034
425,-2.0560105440936036,-0.04545189473312971
426,-2.060164112249393,-0.048577893236042426
427,-2.0651999642701235,-0.04994860969624525
428,-2.0712178278036135,-0.05050913892875697
429,-2.0741926395702084,-0.0494768571174504
430,-2.0751251970954137,-0.052092052379733154
431,-2.0730621019908124,-0.05727440017038284
432,-2.07551158915976,-0.056966771234637746
433,-2.074994003810401,-0.057355234801595045
434,-2.0707457648213454,-0.06003596390666057
435,-2.067181274406174,-0.061790363668386576
436,-2.063381468743633,-0.06360100856330458
437,-2.059356211715266,-0.06560370799810529
438,-2.0567313990325307,-0.062454124335271796
439,-2.0542105121704872,-0.0613601982992821
440,-2.050357160653075,-0.06402874880022179
441,-2.045950800094766,-0.0648870730245126
442,-2.039934064442267,-0.06534200125386797
443,-2.031255933046774,-0.06634417884661271
444,-2.0214088873309968,-0.06880611668537125
445,-2.0095585957282434,-0.07031667967815833
446,-1.992721896406716,-0.07035695271428138
447,-1.9809107129558166,-0.06935284283878292
448,-1.970825286122647,-0.06888284160576617
449,-1.960657908144827,-0.06922940892704367
450,-1.9546156816179325,-0.0682408309989773
451,-1.949223659635936,-0.0688569672345945
452,-1.942161173400122,-0.07309491397724638
453,-1.9313293310909612,-0.07654329670744747
454,-1.9193786793401453,-0.08071829769982847
455,-1.9067052996394347,-0.08499126860622688
456,-1.892975412628858,-0.08736414136292874
457,-1.8792075972842746,-0.08953306054841556
458,-1.8646715007058694,-0.0930274950207746
459,-1.8501845029749464,-0.09730828736540445
460,-1.8363134830211159,-0.10101912914722694
461,-1.8243062720468093,-0.1044786050261177
462,-1.8100547045476414,-0.10775422776747684
463,-1.7962810297952152,-0.11191613817061966
464,-1.7841418460888852,-0.11561200625419882
465,-1.7705059098731812,-0.11723189109285803
466,-1.7590376697479855,-0.1187212156541567
467,-1.7518239723049533,-0.1208108331053931
468,-1.7406736342238387,-0.12274450126133304
469,-1.7268281131466718,-0.12487371956108352
470,-1.7075001875515903,-0.12603286940029673
471,-1.696600577091833,-0.12194701194079335
472,-1.6939932638715947,-0.11531181065158673
473,-1.7064036566907572,-0.10650660411302922
474,-1.719134486406823,-0.10553934834218719
475,-1.7276085468990208,-0.10912710700161926
476,-1.7293072759632526,-0.11725751509863845
477,-1.7214324099446907,-0.12142458554244631
478,-1.714342579664197,-0.12430359700771224
479,-1.7089321312802344,-0.12684399342227776
480,-1.701613512252781,-0.1261243587571897
481,-1.694134718810354,-0.12606348781113066
482,-1.6868737803496785,-0.1256484878805175
483,-1.6749429244593284,-0.128291827331673
484,-1.6623768458268835,-0.13044877650808834
485,-1.6491953902882588,-0.1325326587151628
486,-1.6312693784271979,-0.13655648954954114
487,-1.610990117087905,-0.14124233421653348
488,-1.5869166745802314,-0.146445271809713
489,-1.5616331909759824,-0.15110972412505325
490,-1.5357212869995687,-0.15638653083007661
491,-1.5087667895780783,-0.16246170630809229
492,-1.4756832662904067,-0.1667822849655857
493,-1.4408486894060333,-0.1714614995045735
494,-1.4050700588155276,-0.17783345370892076
495,-1.3652000061826166,-0.1825091925418186
496,-1.3247081408090717,-0.18761851663805632
497,-1.284501936839496,-0.19341011990421547
498,-1.2436042537033931,-0.19770217011893948
499,-1.2003749358522342,-0.2017890772563676
500,-1.155990301841733,-0.2058963195090475
501,-1.1079219051966158,-0.20952509441552336
502,-1.0584234926278717,-0.2127104267897391
503,-1.0081711539039244,-0.21588245709216075
504,-0.9560744945839533,-0.21876578340484776
505,-0.9033248441294267,-0.22077307587681433
506,-0.8496823680444275,-0.222922812935189
507,-0.7898753603565052,-0.22650979483938558
508,-0.7333924309584864,-0.2272006087475068
509,-0.6766450865496134,-0.22740752124362024
510,-0.618192426232145,-0.22760439757180484
511,-0.5577145503529888,-0.22831749237060617
512,-0.49746710430079416,-0.22841434468963817
513,-0.4381531306834727,-0.22686859373105803
514,-0.3807878329007092,-0.2285008334606438
515,-0.3212353066469248,-0.228997130382331
516,-0.2587587286212601,-0.22957520680168494
517,-0.19888942129991757,-0.22912421203670483
518,-0.13914832129443325,-0.22841792862739146
519,-0.07916743519257195,-0.22821176344346072
520,-0.019795924605972258,-0.2285560110526506
521,0.041459591022312725,-0.2288342830200279
522,0.10348830135629924,-0.22936567945627953
523,0.15913160629566017,-0.23015510319410132
524,0.21641212047095323,-0.2307591171946718
525,0.2735972170314505,-0.23093881604537103
526,0.3249032147579147,-0.23223806753541998
527,0.3747399691075938,-0.23341093484148334
528,0.42364252416069603,-0.23512480900346439
529,0.474018473683701,-0.23539595705180677
530,0.5195739196957808,-0.237036859115802
531,0.5644070624039634,-0.23886014469693265
532,0.6105290066551037,-0.24115181052217108
533,0.6498208389542753,-0.242280171188709
534,0.6894796030281559,-0.24374359930117126
535,0.7308365357233344,-0.24574736308513148
536,0.7690831886377308,-0.24694851670383103
537,0.8065651330867794,-0.24823054618738993
538,0.8430233681512785,-0.24978505447716165
539,0.885018015066652,-0.250766504147941
540,0.9191532484305547,-0.25144673941679035
541,0.9479549862607397,-0.2515593240612965
542,0.9781463184591002,-0.25148439928890315
543,1.0056059558498243,-0.25173597454371444
544,1.0332362587760475,-0.2526644817122351
545,1.0672226452550146,-0.25542679773045185
546,1.1028744024775798,-0.25644912248606666
547,1.136582802197389,-0.2570246674524146
548,1.1667423384280031,-0.2575538836138889
549,1.1978715243634912,-0.2568552578543854
550,1.2273422546699324,-0.25654041959004653
551,1.25541894435818,-0.25612546740886444
552,1.2811017320659177,-0.2560423188917976
553,1.305493751997519,-0.25633897408015427
554,1.3283257733950111,-0.25739926703875665
555,1.352885218343082,-0.25853502919642507
556,1.3745171602087387,-0.26020692159623626
557,1.39515014597764,-0.26218537228280664
558,1.4167358761839721,-0.26489905756897053
559,1.4372327283751865,-0.2682242179572093
560,1.4564433118638096,-0.27177623448314925
561,1.4749549661411134,-0.27569915650150245
562,1.4949387770039955,-0.2801750611754942
563,1.5139891326501367,-0.28618709404771714
564,1.5322916109591809,-0.29248811891296445
565,1.5511199771455524,-0.29873493278739416
566,1.5685502222662535,-0.30651069445313645
567,1.5848014753083277,-0.3144999774694399
568,1.598778576381336,-0.3222313470390882
569,1.6121344715630594,-0.330033737008845
570,1.6243460467501512,-0.33816027329098247
571,1.6346274256258655,-0.3470439500392078
572,1.6429523831432065,-0.3551460537012204
573,1.650515821532187,-0.36413627238507407
574,1.657811793151247,-0.37263346561447086
575,1.6635742835120433,-0.3810515165753804
576,1.6707841602330502,-0.3891653035547726
577,1.6784124012953712,-0.397872947659542
578,1.6847839630796466,-0.40659096666766714
579,1.6923537430719438,-0.41470511879545474
580,1.699983908616249,-0.42305097095937205
581,1.7085067754177101,-0.43052116859176026
582,1.7170019411559947,-0.43834908705715225
583,1.72559472257362,-0.4446926074969025
584,1.7333400143600326,-0.44978022353236374
585,1.7362068041885774,-0.4553136427690023
586,1.737584576161114,-0.46045058289264823
587,1.737556528904477,-0.4659710188382609
588,1.7355138570710187,-0.4687218719634507
589,1.7357750337194802,-0.4723692926506259
590,1.7374614432130062,-0.4761439671375318
591,1.7393186655532418,-0.4795197156499306
592,1.7459641192607604,-0.48297396326150444
593,1.752501755179515,-0.4866182639667767
594,1.7591609201369551,-0.490279132779507
595,1.7651660087368175,-0.49307292863095115
596,1.7708472610755823,-0.4956701383236561
597,1.7769041155307224,-0.4979955384585978
598,1.7810670665376083,-0.4999597406920016
599,1.784422443820568,-0.50276400133665
600,1.7872276774951217,-0.5055006959340085
601,1.7888265701521522,-0.507415452011207
602,1.7870138073704873,-0.5106086378606456
603,1.78674301208744,-0.5142149663123052
604,1.7866403840245493,-0.5183659732459065
605,1.784788596704762,-0.5221611720279715
606,1.782303877940899,-0.526831136566055
607,1.7785869802962986,-0.5323187006857939
608,1.7717832965453573,-0.5376028947827438
609,1.7675744123570765,-0.5431723614184111
610,1.7613770740048738,-0.5496541682172268
611,1.7536941533762136,-0.5552739896406718
612,1.7458207075213064,-0.562072155762922
613,1.7357125664139144,-0.5684677043140373
614,1.7251074685002281,-0.5741916085867691
615,1.7141393696830225,-0.5794552439928837
616,1.7026499823546664,-0.5834257191663164
617,1.6926839831396066,-0.5883256768556517
618,1.6849279168061766,-0.5942461763346133
619,1.6786436725630607,-0.6004712732311269
620,1.6744361032249144,-0.606662116676823
621,1.6641264827998832,-0.614379319074422
622,1.638656675603973,-0.6253640425687038
623,1.605021233801072,-0.6384626058906177
624,1.572529594302579,-0.6491521907554726
625,1.5430203216108722,-0.6558818170455872
626,1.521627221506148,-0.6556765658299055
627,1.516419182811018,-0.6526592212499995
628,1.5223998083648653,-0.6481635763707291
629,1.5409501308815252,-0.6435424459607315
630,1.5633680687041904,-0.6394105288644685
631,1.585901424821239,-0.6343907011014541
632,1.6066469605741203,-0.6285252730527647
633,1.6223594447152254,-0.6193436914586596
634,1.6364267437720474,-0.6121769505655035
635,1.6468397683953078,-0.6046892544951064
636,1.6506224496685842,-0.593942633643349
637,1.6623170158113578,-0.5904969145614792
638,1.6757203810381585,-0.5919823845870902
639,1.6904867070059209,-0.59752748631491
640,1.7056464695896794,-0.6103537314178954
641,1.7107224797802687,-0.6260708969447769
642,1.7105314835269625,-0.6448032961751947
643,1.7071810322603813,-0.6670108167306052
644,1.693910531875825,-0.6901865055569525
645,1.675054356891562,-0.7143140982178228
646,1.6518443686306405,-0.739150777050083
647,1.6242396943688542,-0.767134268427393
648,1.5911901059367022,-0.7991514414301499
649,1.5593046456385729,-0.8333975214030073
650,1.5298776057746466,-0.8689127808206699
651,1.5043846451006022,-0.9028595109189121
652,1.478157641247432,-0.9322101060819328
653,1.4446688798613847,-0.948309174464907
654,1.3947746766762117,-0.9362275097867523
655,1.3414542748258549,-0.9164918086744963
656,1.282508125385419,-0.8961337524028404
657,1.2199502031245892,-0.8769291395033967
658,1.1620153031388714,-0.8638531930661935
659,1.102249751680134,-0.8568952591698299
660,1.0393870052885477,-0.8524486272462982
661,0.9722307356933686,-0.8487950587262243
662,0.9082181409618414,-0.8446699080295288
663,0.8433792071436058,-0.8415524831654976
664,0.777437015417589,-0.838512123221345
665,0.7092826799297915,-0.8355061363669056
666,0.65090372978648,-0.832969881852146
667,0.5961529055598724,-0.8309453449922544
668,0.5437487420155723,-0.8287380575308626
669,0.4927128409542475,-0.8263114456327723
670,0.4518870562077435,-0.824197448335713
671,0.4154061735234427,-0.821988360166063
672,0.3823213988183125,-0.821574474180134
673,0.35713795249555813,-0.8206016328472517
674,0.3400871158977195,-0.8208761319508269
675,0.32864114955869855,-0.8214013504245995
676,0.32255180938591094,-0.8224677125030223
677,0.3251032612140328,-0.8237016281479501
678,0.33686724114886385,-0.8250988985489766
679,0.3568000809031957,-0.8266286023367383
680,0.38619883746820094,-0.8278578977117693
681,0.4330633726170941,-0.8300816011023788
682,0.4898318145319618,-0.833629338777166
683,0.5595888373506659,-0.8381651775482973
684,0.6533837147795839,-0.8429659966855056
685,0.7607142517789555,-0.8462546306332391
686,0.8828019963302441,-0.8484481248803727
687,1.01906139841376,-0.8483591754667509
688,1.1593180886215508,-0.8441261667795327
689,1.3179949128991257,-0.8376291166927119
690,1.4805116265361302,-0.8278177083644023
691,1.6439224548699722,-0.8151836216406397
692,1.820968249878378,-0.798383939782848
693,1.9878516400672734,-0.779587705065668
694,2.1549928395335245,-0.7586396373457566
695,2.3265160926475925,-0.7357266401605485
696,2.4912211191672475,-0.7093263173900322
697,2.6393422552575454,-0.6820663249106435
698,2.7855436026760643,-0.6532705608264989
699,2.9332037900009333,-0.6224503635912179
700,3.0622025303310916,-0.5936502073291143
701,3.1913585278127616,-0.5626022317351863
702,3.3129249178883167,-0.5316786202928189
703,3.4215334732120497,-0.5021600738712078
704,3.5283321033584523,-0.4723226571720861
705,3.6284602631943264,-0.44314096185575175
706,3.719684756029709,-0.4156104220526077
707,3.8023812486481785,-0.3896575914841201
708,3.8824838387452942,-0.3647527219206624
709,3.9594861042590037,-0.34097432045294124
710,4.030073117101965,-0.31906494527836465
711,4.0950105591243515,-0.2978429292984184
712,4.161396147317767,-0.2771593672018369
713,4.222476986088379,-0.25531658741022506
714,4.279707337010171,-0.23355929799651023
715,4.334047514188791,-0.21278071755125968
716,4.382832635422448,-0.19427455409469688
717,4.431494018313177,-0.17434339236164467
718,4.477815046004299,-0.1542219462135363
719,4.519552898188434,-0.13390712563680265
720,4.55860896533805,-0.1151923336914023
721,4.593452177596917,-0.09839072705259813
722,4.628460586384971,-0.08234599591019331
723,4.664968242867806,-0.0665055127573139
724,4.697506966521088,-0.05499137321944678
725,4.732637170676282,-0.04377094074496342
726,4.762483366020819,-0.032739203213043105
727,4.785782068380343,-0.0219698968414769
728,4.8069156800530095,-0.012057418973991993
729,4.825794617200581,-0.0031868819806936807
730,4.844141525256167,0.004616921166837916
731,4.861097874426832,0.01114780332259808
732,4.877709319388706,0.01700002477509695
733,4.892345100440036,0.021455522091660278
734,4.905042558918428,0.02540588912394761
735,4.918276147606474,0.03004711545300098
736,4.934268513015176,0.03411984775290316
737,4.9461447207423035,0.03645064665023161
738,4.96168492566632,0.03880062978656605
739,4.981998280406223,0.041944873277790666
740,5.004934752373859,0.04467095100858427
741,5.0200449135574905,0.044972504743393565
742,5.037933022657257,0.04620044343679265
743,5.056977938321857,0.04673798529955839
744,5.075783111865209,0.0468035060715695
745,5.091158821012771,0.045965506304939854
746,5.105646595580846,0.045813308940464495
747,5.1139127780134945,0.048874233410127574
748,5.118773107002193,0.055216751964247336
749,5.125342455411266,0.06467167137832089
750,5.124349883435452,0.07726261406820643
751,5.125862352446369,0.08673873389165364
752,5.129439980025059,0.0934377514458465
753,5.135618737763395,0.09727604377629466
754,5.147058642790827,0.09795656788347998
755,5.160916831731695,0.09263152339146911
756,5.176854011367474,0.08873094662945819
757,5.193013949034777,0.08584861928780034
758,5.207627304106305,0.08187965984743201
759,5.22602444349839,0.07741043862205416
760,5.243318801158168,0.07421341664657605
761,5.260429574189776,0.07136064882589471
762,5.276115575142935,0.06885781291330124
763,5.286149151083669,0.06730982308814953
764,5.292786347038582,0.06847345926042962
765,5.299516452540403,0.06933104210587342
766,5.307823716543535,0.0693831669026213
767,5.318757292072481,0.06883125934143192
768,5.329368412064259,0.06668062721568054
769,5.33715100278906,0.06592008939638683
770,5.34471376599802,0.06633045221088812
771,5.35355965440418,0.06691055173307153
772,5.365448738391989,0.06541050304210211
773,5.369112917833722,0.06626278388939323
774,5.378638363049823,0.06804333708928378
775,5.3880736458028755,0.07074020424243418
776,5.394807485628212,0.07475079225507039
777,5.403756308995983,0.07694133188196892
778,5.4121783021025855,0.07753489981629894
779,5.418786952985472,0.0782246790987023
780,5.4271495157591945,0.07834157891592161
781,5.439948962630363,0.07766374819348316
782,5.451070143787517,0.07408210741106
783,5.461645803318212,0.0749835434895699
784,5.47081530470048,0.07479093788098884
785,5.483444640384096,0.07287067992335468
786,5.501284016571725,0.07058997016719712
787,5.511191060890389,0.07031387742786013
788,5.514933100568354,0.07915746965662128
789,5.508005113500789,0.09427275483571455
790,5.49566856483472,0.10932385178234445
791,5.486907068389349,0.11974776824439878
792,5.491515220469118,0.12009643330725325
793,5.504037575679482,0.11886995510970062
794,5.512345797316776,0.12126779822149023
795,5.519826413483641,0.12577669981648174
796,5.5301720433890695,0.12914338146073065
797,5.540297220716065,0.1287924966324094
798,5.551622976988503,0.12874353754317516
799,5.560325518697446,0.12998187117277973
800,5.567889967352739,0.13142283403749547
801,5.5750549790324655,0.13255783121136852
802,5.582376509714686,0.13316623465049574
803,5.586479685145422,0.13422143091417624
804,5.591594030029871,0.136460636769353
805,5.595363419980569,0.13977990932146858
