Wavelength,Reflectance
/***,***/
346.0,32.81
347.0,31.36
348.0,30.07
349.0,28.92
350.0,27.88
351.0,26.94
352.0,26.09
353.0,25.31
354.0,24.59
355.0,23.93
356.0,23.33
357.0,22.82
358.0,22.35
359.0,21.91
360.0,21.50
361.0,21.12
362.0,20.75
363.0,20.41
364.0,20.09
365.0,19.79
366.0,19.50
367.0,18.93
368.0,18.40
369.0,17.90
370.0,17.44
371.0,17.01
372.0,16.61
373.0,16.23
374.0,15.87
375.0,15.54
376.0,15.22
377.0,14.85
378.0,14.49
379.0,14.15
380.0,13.82
381.0,13.51
382.0,13.22
383.0,12.94
384.0,12.67
385.0,12.41
386.0,12.16
387.0,12.14
388.0,12.13
389.0,12.11
390.0,12.10
391.0,12.09
392.0,12.07
393.0,12.06
394.0,12.05
395.0,12.04
396.0,12.03
397.0,11.83
398.0,11.64
399.0,11.46
400.0,11.29
401.0,11.12
402.0,10.96
403.0,10.80
404.0,10.65
405.0,10.50
406.0,10.36
407.0,10.42
408.0,10.47
409.0,10.52
410.0,10.56
411.0,10.61
412.0,10.65
413.0,10.69
414.0,10.73
415.0,10.77
416.0,10.81
417.0,10.76
418.0,10.70
419.0,10.65
420.0,10.60
421.0,10.56
422.0,10.51
423.0,10.47
424.0,10.42
425.0,10.38
426.0,10.34
427.0,10.30
428.0,10.26
429.0,10.23
430.0,10.20
431.0,10.16
432.0,10.13
433.0,10.10
434.0,10.07
435.0,10.04
436.0,10.02
437.0,10.10
438.0,10.18
439.0,10.26
440.0,10.34
441.0,10.41
442.0,10.48
443.0,10.55
444.0,10.62
445.0,10.69
446.0,10.75
447.0,10.87
448.0,10.99
449.0,11.10
450.0,11.21
451.0,11.32
452.0,11.43
453.0,11.53
454.0,11.63
455.0,11.73
456.0,11.82
457.0,11.91
458.0,11.99
459.0,12.06
460.0,12.14
461.0,12.21
462.0,12.28
463.0,12.35
464.0,12.41
465.0,12.47
466.0,12.53
467.0,12.60
468.0,12.66
469.0,12.72
470.0,12.78
471.0,12.83
472.0,12.89
473.0,12.94
474.0,12.99
475.0,13.04
476.0,13.09
477.0,13.14
478.0,13.19
479.0,13.24
480.0,13.28
481.0,13.33
482.0,13.37
483.0,13.41
484.0,13.45
485.0,13.50
486.0,13.54
487.0,13.80
488.0,14.06
489.0,14.31
490.0,14.56
491.0,14.79
492.0,15.02
493.0,15.25
494.0,15.47
495.0,15.68
496.0,15.89
497.0,16.44
498.0,16.99
499.0,17.52
500.0,18.04
501.0,18.54
502.0,19.04
503.0,19.53
504.0,20.01
505.0,20.47
506.0,20.93
507.0,21.71
508.0,22.48
509.0,23.24
510.0,23.99
511.0,24.73
512.0,25.45
513.0,26.17
514.0,26.88
515.0,27.58
516.0,28.28
517.0,29.14
518.0,29.98
519.0,30.80
520.0,31.61
521.0,32.40
522.0,33.17
523.0,33.92
524.0,34.66
525.0,35.38
526.0,36.09
527.0,36.68
528.0,37.26
529.0,37.83
530.0,38.39
531.0,38.93
532.0,39.46
533.0,39.97
534.0,40.48
535.0,40.97
536.0,41.46
537.0,41.78
538.0,42.10
539.0,42.41
540.0,42.71
541.0,43.01
542.0,43.31
543.0,43.60
544.0,43.88
545.0,44.16
546.0,44.44
547.0,44.52
548.0,44.60
549.0,44.68
550.0,44.75
551.0,44.83
552.0,44.91
553.0,44.99
554.0,45.06
555.0,45.14
556.0,45.22
557.0,45.10
558.0,44.99
559.0,44.88
560.0,44.77
561.0,44.66
562.0,44.55
563.0,44.44
564.0,44.34
565.0,44.24
566.0,44.14
567.0,43.85
568.0,43.58
569.0,43.31
570.0,43.04
571.0,42.78
572.0,42.52
573.0,42.27
574.0,42.02
575.0,41.78
576.0,41.54
577.0,41.28
578.0,41.04
579.0,40.79
580.0,40.55
581.0,40.31
582.0,40.08
583.0,39.84
584.0,39.61
585.0,39.39
586.0,39.16
587.0,39.00
588.0,38.84
589.0,38.68
590.0,38.52
591.0,38.37
592.0,38.21
593.0,38.06
594.0,37.91
595.0,37.76
596.0,37.61
597.0,37.45
598.0,37.29
599.0,37.14
600.0,36.98
601.0,36.83
602.0,36.67
603.0,36.52
604.0,36.36
605.0,36.21
606.0,36.06
607.0,35.81
608.0,35.57
609.0,35.33
610.0,35.09
611.0,34.85
612.0,34.62
613.0,34.39
614.0,34.16
615.0,33.93
616.0,33.71
617.0,33.55
618.0,33.40
619.0,33.25
620.0,33.10
621.0,32.96
622.0,32.82
623.0,32.68
624.0,32.54
625.0,32.40
626.0,32.27
627.0,32.29
628.0,32.31
629.0,32.32
630.0,32.34
631.0,32.36
632.0,32.38
633.0,32.40
634.0,32.41
635.0,32.43
636.0,32.45
637.0,32.00
638.0,31.54
639.0,31.09
640.0,30.64
641.0,30.19
642.0,29.75
643.0,29.31
644.0,28.86
645.0,28.42
646.0,27.98
647.0,27.43
648.0,26.88
649.0,26.33
650.0,25.78
651.0,25.23
652.0,24.68
653.0,24.13
654.0,23.57
655.0,23.02
656.0,22.47
657.0,22.03
658.0,21.60
659.0,21.17
660.0,20.75
661.0,20.33
662.0,19.92
663.0,19.51
664.0,19.11
665.0,18.71
666.0,18.31
667.0,18.12
668.0,17.94
669.0,17.75
670.0,17.57
671.0,17.39
672.0,17.21
673.0,17.03
674.0,16.86
675.0,16.69
676.0,16.52
677.0,17.13
678.0,17.75
679.0,18.35
680.0,18.95
681.0,19.53
682.0,20.12
683.0,20.69
684.0,21.26
685.0,21.82
686.0,22.37
687.0,24.46
688.0,26.55
689.0,28.63
690.0,30.70
691.0,32.77
692.0,34.83
693.0,36.88
694.0,38.93
695.0,40.97
696.0,43.00
697.0,45.03
698.0,47.05
699.0,49.07
700.0,51.09
701.0,53.11
702.0,55.12
703.0,57.14
704.0,59.15
705.0,61.16
706.0,63.18
707.0,64.37
708.0,65.56
709.0,66.76
710.0,67.96
711.0,69.16
712.0,70.37
713.0,71.58
714.0,72.79
715.0,74.01
716.0,75.22
717.0,75.87
718.0,76.53
719.0,77.18
720.0,77.84
721.0,78.50
722.0,79.16
723.0,79.83
724.0,80.50
725.0,81.17
726.0,81.85
727.0,82.05
728.0,82.26
729.0,82.46
730.0,82.67
731.0,82.88
732.0,83.08
733.0,83.29
734.0,83.50
735.0,83.71
736.0,83.92
737.0,84.10
738.0,84.28
739.0,84.46
740.0,84.64
741.0,84.81
742.0,84.98
743.0,85.15
744.0,85.32
745.0,85.49
746.0,85.66
747.0,85.81
748.0,85.97
749.0,86.12
750.0,86.28
751.0,86.43
752.0,86.58
753.0,86.73
754.0,86.88
755.0,87.04
756.0,87.19
757.0,87.31
758.0,87.43
759.0,87.55
760.0,87.66
761.0,87.78
762.0,87.90
763.0,88.01
764.0,88.13
765.0,88.24
766.0,88.36
767.0,88.48
768.0,88.61
769.0,88.73
770.0,88.86
771.0,88.98
772.0,89.11
773.0,89.23
774.0,89.35
775.0,89.48
776.0,89.60
777.0,89.67
778.0,89.74
779.0,89.81
780.0,89.88
781.0,89.94
782.0,90.01
783.0,90.08
784.0,90.15
785.0,90.22
786.0,90.29
787.0,90.41
788.0,90.53
789.0,90.65
790.0,90.77
791.0,90.90
792.0,91.02
793.0,91.14
794.0,91.27
795.0,91.39
796.0,91.52
797.0,91.58
798.0,91.63
799.0,91.69
800.0,91.75
801.0,91.81
802.0,91.87
803.0,91.93
804.0,91.99
805.0,92.05
806.0,92.11
807.0,92.17
808.0,92.22
809.0,92.27
810.0,92.33
811.0,92.38
812.0,92.43
813.0,92.49
814.0,92.54
815.0,92.59
816.0,92.65
817.0,92.64
818.0,92.63
819.0,92.63
820.0,92.62
821.0,92.61
822.0,92.60
823.0,92.60
824.0,92.59
825.0,92.58
826.0,92.57
827.0,92.50
828.0,92.42
829.0,92.34
830.0,92.26
831.0,92.19
832.0,92.11
833.0,92.03
834.0,91.96
835.0,91.88
836.0,91.80
837.0,91.84
838.0,91.89
839.0,91.93
840.0,91.97
841.0,92.01
842.0,92.05
843.0,92.09
844.0,92.13
845.0,92.17
846.0,92.21
847.0,92.28
848.0,92.36
849.0,92.44
850.0,92.51
851.0,92.59
852.0,92.67
853.0,92.74
854.0,92.82
855.0,92.89
856.0,92.97
857.0,92.97
858.0,92.97
859.0,92.98
860.0,92.98
861.0,92.98
862.0,92.98
863.0,92.98
864.0,92.98
865.0,92.99
866.0,92.99
867.0,92.93
868.0,92.87
869.0,92.82
870.0,92.76
871.0,92.70
872.0,92.65
873.0,92.59
874.0,92.53
875.0,92.48
876.0,92.42
877.0,92.35
878.0,92.28
879.0,92.21
880.0,92.14
881.0,92.07
882.0,92.00
883.0,91.93
884.0,91.86
885.0,91.79
886.0,91.73
887.0,91.58
888.0,91.43
889.0,91.29
890.0,91.14
891.0,90.99
892.0,90.85
893.0,90.70
894.0,90.55
895.0,90.40
896.0,90.26
897.0,90.14
898.0,90.02
899.0,89.90
900.0,89.78
901.0,89.66
902.0,89.54
903.0,89.42
904.0,89.30
905.0,89.19
906.0,89.07
907.0,88.89
908.0,88.72
909.0,88.54
910.0,88.37
911.0,88.19
912.0,88.02
913.0,87.84
914.0,87.67
915.0,87.49
916.0,87.31
917.0,87.00
918.0,86.68
919.0,86.36
920.0,86.05
921.0,85.73
922.0,85.41
923.0,85.10
924.0,84.78
925.0,84.46
926.0,84.15
927.0,83.68
928.0,83.22
929.0,82.75
930.0,82.30
931.0,81.84
932.0,81.38
933.0,80.93
934.0,80.48
935.0,80.03
936.0,79.58
937.0,79.06
938.0,78.55
939.0,78.03
940.0,77.52
941.0,77.01
942.0,76.50
943.0,75.99
944.0,75.49
945.0,74.99
946.0,74.49
947.0,73.86
948.0,73.24
949.0,72.63
950.0,72.01
951.0,71.40
952.0,70.79
953.0,70.18
954.0,69.57
955.0,68.97
956.0,68.36
957.0,68.12
958.0,67.88
959.0,67.64
960.0,67.40
961.0,67.16
962.0,66.92
963.0,66.68
964.0,66.45
965.0,66.21
966.0,65.97
967.0,65.94
968.0,65.90
969.0,65.87
970.0,65.83
971.0,65.80
972.0,65.76
973.0,65.73
974.0,65.70
975.0,65.66
976.0,65.63
977.0,65.38
978.0,65.13
979.0,64.89
980.0,64.64
981.0,64.40
982.0,64.15
983.0,63.91
984.0,63.67
985.0,63.43
986.0,63.19
987.0,63.29
988.0,63.39
989.0,63.49
990.0,63.59
991.0,63.69
992.0,63.79
993.0,63.88
994.0,63.98
995.0,64.08
996.0,64.18
997.0,64.39
998.0,64.60
999.0,64.81
1000.0,65.02
1001.0,65.23
1002.0,65.44
1003.0,65.65
1004.0,65.86
1005.0,66.07
1006.0,66.28
1007.0,66.56
1008.0,66.84
1009.0,67.12
1010.0,67.39
1011.0,67.67
1012.0,67.95
1013.0,68.23
1014.0,68.51
1015.0,68.78
1016.0,69.06
1017.0,69.35
1018.0,69.63
1019.0,69.92
1020.0,70.21
1021.0,70.49
1022.0,70.78
1023.0,71.07
1024.0,71.35
1025.0,71.64
1026.0,71.93
1027.0,72.20
1028.0,72.49
1029.0,72.77
1030.0,73.05
1031.0,73.33
1032.0,73.61
1033.0,73.89
1034.0,74.17
1035.0,74.45
1036.0,74.73
1037.0,75.00
1038.0,75.27
1039.0,75.54
1040.0,75.80
1041.0,76.07
1042.0,76.33
1043.0,76.60
1044.0,76.86
1045.0,77.13
1046.0,77.39
1047.0,77.60
1048.0,77.80
1049.0,78.01
1050.0,78.22
1051.0,78.42
1052.0,78.63
1053.0,78.83
1054.0,79.04
1055.0,79.25
1056.0,79.45
1057.0,79.57
1058.0,79.70
1059.0,79.82
1060.0,79.94
1061.0,80.07
1062.0,80.19
1063.0,80.31
1064.0,80.43
1065.0,80.56
1066.0,80.68
1067.0,80.71
1068.0,80.74
1069.0,80.77
1070.0,80.80
1071.0,80.83
1072.0,80.87
1073.0,80.90
1074.0,80.93
1075.0,80.96
1076.0,80.99
1077.0,80.92
1078.0,80.86
1079.0,80.79
1080.0,80.73
1081.0,80.66
1082.0,80.60
1083.0,80.53
1084.0,80.47
1085.0,80.40
1086.0,80.34
1087.0,80.18
1088.0,80.03
1089.0,79.88
1090.0,79.72
1091.0,79.57
1092.0,79.42
1093.0,79.27
1094.0,79.11
1095.0,78.96
1096.0,78.81
1097.0,78.62
1098.0,78.43
1099.0,78.25
1100.0,78.06
1101.0,77.87
1102.0,77.68
1103.0,77.50
1104.0,77.31
1105.0,77.12
1106.0,76.93
1107.0,76.72
1108.0,76.50
1109.0,76.28
1110.0,76.06
1111.0,75.84
1112.0,75.63
1113.0,75.41
1114.0,75.19
1115.0,74.97
1116.0,74.75
1117.0,74.39
1118.0,74.02
1119.0,73.66
1120.0,73.30
1121.0,72.94
1122.0,72.57
1123.0,72.21
1124.0,71.85
1125.0,71.49
1126.0,71.12
1127.0,70.44
1128.0,69.75
1129.0,69.07
1130.0,68.38
1131.0,67.70
1132.0,67.01
1133.0,66.33
1134.0,65.64
1135.0,64.96
1136.0,64.27
1137.0,63.50
1138.0,62.73
1139.0,61.96
1140.0,61.19
1141.0,60.42
1142.0,59.65
1143.0,58.88
1144.0,58.11
1145.0,57.34
1146.0,56.57
1147.0,56.11
1148.0,55.65
1149.0,55.19
1150.0,54.73
1151.0,54.28
1152.0,53.82
1153.0,53.36
1154.0,52.90
1155.0,52.43
1156.0,51.97
1157.0,51.81
1158.0,51.65
1159.0,51.49
1160.0,51.32
1161.0,51.16
1162.0,51.00
1163.0,50.83
1164.0,50.67
1165.0,50.51
1166.0,50.34
1167.0,50.28
1168.0,50.22
1169.0,50.16
1170.0,50.10
1171.0,50.04
1172.0,49.98
1173.0,49.92
1174.0,49.86
1175.0,49.80
1176.0,49.73
1177.0,49.68
1178.0,49.63
1179.0,49.58
1180.0,49.53
1181.0,49.48
1182.0,49.43
1183.0,49.38
1184.0,49.33
1185.0,49.28
1186.0,49.23
1187.0,49.20
1188.0,49.17
1189.0,49.14
1190.0,49.11
1191.0,49.08
1192.0,49.06
1193.0,49.03
1194.0,49.00
1195.0,48.97
1196.0,48.94
1197.0,48.95
1198.0,48.96
1199.0,48.97
1200.0,48.98
1201.0,48.99
1202.0,49.00
1203.0,49.01
1204.0,49.03
1205.0,49.04
1206.0,49.05
1207.0,49.10
1208.0,49.15
1209.0,49.20
1210.0,49.25
1211.0,49.30
1212.0,49.35
1213.0,49.40
1214.0,49.45
1215.0,49.50
1216.0,49.55
1217.0,49.63
1218.0,49.70
1219.0,49.78
1220.0,49.86
1221.0,49.93
1222.0,50.01
1223.0,50.09
1224.0,50.17
1225.0,50.24
1226.0,50.32
1227.0,50.39
1228.0,50.46
1229.0,50.54
1230.0,50.61
1231.0,50.68
1232.0,50.75
1233.0,50.83
1234.0,50.90
1235.0,50.97
1236.0,51.04
1237.0,51.10
1238.0,51.16
1239.0,51.21
1240.0,51.27
1241.0,51.33
1242.0,51.38
1243.0,51.44
1244.0,51.50
1245.0,51.56
1246.0,51.61
1247.0,51.66
1248.0,51.71
1249.0,51.76
1250.0,51.80
1251.0,51.85
1252.0,51.90
1253.0,51.95
1254.0,51.99
1255.0,52.04
1256.0,52.09
1257.0,52.11
1258.0,52.12
1259.0,52.14
1260.0,52.15
1261.0,52.17
1262.0,52.18
1263.0,52.20
1264.0,52.22
1265.0,52.23
1266.0,52.25
1267.0,52.22
1268.0,52.20
1269.0,52.17
1270.0,52.15
1271.0,52.12
1272.0,52.10
1273.0,52.07
1274.0,52.05
1275.0,52.02
1276.0,52.00
1277.0,51.93
1278.0,51.86
1279.0,51.79
1280.0,51.73
1281.0,51.66
1282.0,51.59
1283.0,51.53
1284.0,51.46
1285.0,51.39
1286.0,51.33
1287.0,51.20
1288.0,51.08
1289.0,50.95
1290.0,50.83
1291.0,50.70
1292.0,50.58
1293.0,50.45
1294.0,50.33
1295.0,50.20
1296.0,50.07
1297.0,49.88
1298.0,49.69
1299.0,49.50
1300.0,49.31
1301.0,49.11
1302.0,48.92
1303.0,48.73
1304.0,48.53
1305.0,48.34
1306.0,48.14
1307.0,47.90
1308.0,47.65
1309.0,47.40
1310.0,47.15
1311.0,46.90
1312.0,46.65
1313.0,46.40
1314.0,46.14
1315.0,45.89
1316.0,45.64
1317.0,45.35
1318.0,45.06
1319.0,44.77
1320.0,44.47
1321.0,44.18
1322.0,43.89
1323.0,43.59
1324.0,43.30
1325.0,43.00
1326.0,42.71
1327.0,42.42
1328.0,42.13
1329.0,41.84
1330.0,41.55
1331.0,41.26
1332.0,40.97
1333.0,40.68
1334.0,40.38
1335.0,40.09
1336.0,39.80
1337.0,39.53
1338.0,39.27
1339.0,39.00
1340.0,38.74
1341.0,38.47
1342.0,38.20
1343.0,37.94
1344.0,37.67
1345.0,37.40
1346.0,37.13
1347.0,36.90
1348.0,36.67
1349.0,36.44
1350.0,36.20
1351.0,35.97
1352.0,35.74
1353.0,35.50
1354.0,35.27
1355.0,35.03
1356.0,34.79
1357.0,34.59
1358.0,34.39
1359.0,34.19
1360.0,33.99
1361.0,33.78
1362.0,33.58
1363.0,33.38
1364.0,33.17
1365.0,32.97
1366.0,32.76
1367.0,32.46
1368.0,32.16
1369.0,31.86
1370.0,31.56
1371.0,31.26
1372.0,30.96
1373.0,30.65
1374.0,30.35
1375.0,30.05
1376.0,29.75
1377.0,29.32
1378.0,28.89
1379.0,28.46
1380.0,28.03
1381.0,27.60
1382.0,27.17
1383.0,26.73
1384.0,26.30
1385.0,25.86
1386.0,25.43
1387.0,25.00
1388.0,24.56
1389.0,24.13
1390.0,23.70
1391.0,23.26
1392.0,22.82
1393.0,22.39
1394.0,21.95
1395.0,21.51
1396.0,21.07
1397.0,20.77
1398.0,20.47
1399.0,20.17
1400.0,19.87
1401.0,19.56
1402.0,19.26
1403.0,18.96
1404.0,18.65
1405.0,18.35
1406.0,18.04
1407.0,17.87
1408.0,17.70
1409.0,17.53
1410.0,17.35
1411.0,17.18
1412.0,17.01
1413.0,16.83
1414.0,16.66
1415.0,16.49
1416.0,16.31
1417.0,16.23
1418.0,16.15
1419.0,16.06
1420.0,15.98
1421.0,15.89
1422.0,15.81
1423.0,15.73
1424.0,15.64
1425.0,15.56
1426.0,15.47
1427.0,15.44
1428.0,15.41
1429.0,15.37
1430.0,15.34
1431.0,15.30
1432.0,15.27
1433.0,15.23
1434.0,15.20
1435.0,15.16
1436.0,15.13
1437.0,15.11
1438.0,15.10
1439.0,15.09
1440.0,15.07
1441.0,15.06
1442.0,15.05
1443.0,15.03
1444.0,15.02
1445.0,15.00
1446.0,14.99
1447.0,14.99
1448.0,14.99
1449.0,14.99
1450.0,15.00
1451.0,15.00
1452.0,15.00
1453.0,15.00
1454.0,15.00
1455.0,15.00
1456.0,15.00
1457.0,15.03
1458.0,15.05
1459.0,15.07
1460.0,15.09
1461.0,15.11
1462.0,15.13
1463.0,15.15
1464.0,15.17
1465.0,15.19
1466.0,15.21
1467.0,15.26
1468.0,15.31
1469.0,15.36
1470.0,15.40
1471.0,15.45
1472.0,15.50
1473.0,15.54
1474.0,15.59
1475.0,15.64
1476.0,15.69
1477.0,15.76
1478.0,15.84
1479.0,15.92
1480.0,16.00
1481.0,16.08
1482.0,16.16
1483.0,16.24
1484.0,16.31
1485.0,16.39
1486.0,16.47
1487.0,16.57
1488.0,16.67
1489.0,16.77
1490.0,16.87
1491.0,16.96
1492.0,17.06
1493.0,17.16
1494.0,17.26
1495.0,17.36
1496.0,17.46
1497.0,17.52
1498.0,17.59
1499.0,17.65
1500.0,17.71
1501.0,17.78
1502.0,17.84
1503.0,17.90
1504.0,17.97
1505.0,18.03
1506.0,18.09
1507.0,18.16
1508.0,18.22
1509.0,18.29
1510.0,18.35
1511.0,18.41
1512.0,18.48
1513.0,18.54
1514.0,18.61
1515.0,18.67
1516.0,18.74
1517.0,18.81
1518.0,18.87
1519.0,18.94
1520.0,19.00
1521.0,19.07
1522.0,19.14
1523.0,19.20
1524.0,19.27
1525.0,19.34
1526.0,19.41
1527.0,19.48
1528.0,19.56
1529.0,19.64
1530.0,19.71
1531.0,19.79
1532.0,19.87
1533.0,19.95
1534.0,20.03
1535.0,20.10
1536.0,20.18
1537.0,20.26
1538.0,20.34
1539.0,20.42
1540.0,20.50
1541.0,20.58
1542.0,20.66
1543.0,20.74
1544.0,20.82
1545.0,20.91
1546.0,20.99
1547.0,21.06
1548.0,21.14
1549.0,21.21
1550.0,21.29
1551.0,21.36
1552.0,21.44
1553.0,21.51
1554.0,21.59
1555.0,21.67
1556.0,21.74
1557.0,21.82
1558.0,21.91
1559.0,21.99
1560.0,22.07
1561.0,22.16
1562.0,22.24
1563.0,22.32
1564.0,22.41
1565.0,22.49
1566.0,22.57
1567.0,22.66
1568.0,22.74
1569.0,22.83
1570.0,22.92
1571.0,23.00
1572.0,23.09
1573.0,23.18
1574.0,23.26
1575.0,23.35
1576.0,23.44
1577.0,23.50
1578.0,23.56
1579.0,23.63
1580.0,23.69
1581.0,23.76
1582.0,23.82
1583.0,23.89
1584.0,23.95
1585.0,24.02
1586.0,24.09
1587.0,24.14
1588.0,24.19
1589.0,24.24
1590.0,24.30
1591.0,24.35
1592.0,24.40
1593.0,24.46
1594.0,24.51
1595.0,24.56
1596.0,24.62
1597.0,24.67
1598.0,24.72
1599.0,24.78
1600.0,24.83
1601.0,24.89
1602.0,24.94
1603.0,24.99
1604.0,25.05
1605.0,25.10
1606.0,25.16
1607.0,25.21
1608.0,25.26
1609.0,25.31
1610.0,25.36
1611.0,25.41
1612.0,25.46
1613.0,25.51
1614.0,25.56
1615.0,25.61
1616.0,25.66
1617.0,25.71
1618.0,25.76
1619.0,25.81
1620.0,25.86
1621.0,25.91
1622.0,25.96
1623.0,26.01
1624.0,26.06
1625.0,26.11
1626.0,26.16
1627.0,26.20
1628.0,26.24
1629.0,26.28
1630.0,26.32
1631.0,26.36
1632.0,26.40
1633.0,26.44
1634.0,26.48
1635.0,26.52
1636.0,26.56
1637.0,26.59
1638.0,26.62
1639.0,26.65
1640.0,26.68
1641.0,26.71
1642.0,26.75
1643.0,26.78
1644.0,26.81
1645.0,26.84
1646.0,26.87
1647.0,26.89
1648.0,26.91
1649.0,26.93
1650.0,26.95
1651.0,26.97
1652.0,26.99
1653.0,27.01
1654.0,27.02
1655.0,27.04
1656.0,27.06
1657.0,27.07
1658.0,27.08
1659.0,27.09
1660.0,27.10
1661.0,27.11
1662.0,27.12
1663.0,27.13
1664.0,27.14
1665.0,27.15
1666.0,27.16
1667.0,27.16
1668.0,27.16
1669.0,27.16
1670.0,27.15
1671.0,27.15
1672.0,27.15
1673.0,27.15
1674.0,27.15
1675.0,27.14
1676.0,27.14
1677.0,27.11
1678.0,27.08
1679.0,27.06
1680.0,27.03
1681.0,27.00
1682.0,26.97
1683.0,26.94
1684.0,26.91
1685.0,26.88
1686.0,26.86
1687.0,26.82
1688.0,26.79
1689.0,26.76
1690.0,26.73
1691.0,26.69
1692.0,26.66
1693.0,26.63
1694.0,26.60
1695.0,26.56
1696.0,26.53
1697.0,26.48
1698.0,26.44
1699.0,26.39
1700.0,26.34
1701.0,26.30
1702.0,26.25
1703.0,26.20
1704.0,26.16
1705.0,26.11
1706.0,26.06
1707.0,26.00
1708.0,25.94
1709.0,25.88
1710.0,25.82
1711.0,25.76
1712.0,25.70
1713.0,25.64
1714.0,25.58
1715.0,25.51
1716.0,25.45
1717.0,25.38
1718.0,25.32
1719.0,25.25
1720.0,25.18
1721.0,25.11
1722.0,25.04
1723.0,24.98
1724.0,24.91
1725.0,24.84
1726.0,24.77
1727.0,24.73
1728.0,24.70
1729.0,24.66
1730.0,24.63
1731.0,24.59
1732.0,24.55
1733.0,24.52
1734.0,24.48
1735.0,24.45
1736.0,24.41
1737.0,24.37
1738.0,24.33
1739.0,24.30
1740.0,24.26
1741.0,24.22
1742.0,24.18
1743.0,24.14
1744.0,24.10
1745.0,24.07
1746.0,24.03
1747.0,23.97
1748.0,23.91
1749.0,23.86
1750.0,23.80
1751.0,23.74
1752.0,23.69
1753.0,23.63
1754.0,23.57
1755.0,23.51
1756.0,23.45
1757.0,23.41
1758.0,23.36
1759.0,23.32
1760.0,23.28
1761.0,23.23
1762.0,23.19
1763.0,23.14
1764.0,23.09
1765.0,23.05
1766.0,23.00
1767.0,22.98
1768.0,22.95
1769.0,22.92
1770.0,22.90
1771.0,22.87
1772.0,22.84
1773.0,22.81
1774.0,22.79
1775.0,22.76
1776.0,22.73
1777.0,22.71
1778.0,22.68
1779.0,22.66
1780.0,22.63
1781.0,22.61
1782.0,22.59
1783.0,22.56
1784.0,22.54
1785.0,22.51
1786.0,22.49
1787.0,22.48
1788.0,22.47
1789.0,22.46
1790.0,22.45
1791.0,22.44
1792.0,22.43
1793.0,22.42
1794.0,22.41
1795.0,22.40
1796.0,22.39
1797.0,22.39
1798.0,22.38
1799.0,22.38
1800.0,22.37
1801.0,22.37
1802.0,22.36
1803.0,22.36
1804.0,22.35
1805.0,22.35
1806.0,22.35
1807.0,22.34
1808.0,22.33
1809.0,22.33
1810.0,22.32
1811.0,22.32
1812.0,22.31
1813.0,22.31
1814.0,22.30
1815.0,22.29
1816.0,22.29
1817.0,22.28
1818.0,22.28
1819.0,22.27
1820.0,22.27
1821.0,22.26
1822.0,22.26
1823.0,22.25
1824.0,22.25
1825.0,22.24
1826.0,22.24
1827.0,22.21
1828.0,22.19
1829.0,22.16
1830.0,22.14
1831.0,22.11
1832.0,22.09
1833.0,22.06
1834.0,22.04
1835.0,22.01
1836.0,21.99
1837.0,21.97
1838.0,21.96
1839.0,21.94
1840.0,21.92
1841.0,21.91
1842.0,21.89
1843.0,21.88
1844.0,21.86
1845.0,21.84
1846.0,21.83
1847.0,21.78
1848.0,21.73
1849.0,21.68
1850.0,21.64
1851.0,21.59
1852.0,21.54
1853.0,21.49
1854.0,21.44
1855.0,21.39
1856.0,21.34
1857.0,21.16
1858.0,20.98
1859.0,20.80
1860.0,20.61
1861.0,20.43
1862.0,20.25
1863.0,20.07
1864.0,19.88
1865.0,19.70
1866.0,19.52
1867.0,19.25
1868.0,18.98
1869.0,18.71
1870.0,18.44
1871.0,18.17
1872.0,17.89
1873.0,17.62
1874.0,17.34
1875.0,17.07
1876.0,16.79
1877.0,16.55
1878.0,16.30
1879.0,16.06
1880.0,15.81
1881.0,15.57
1882.0,15.32
1883.0,15.07
1884.0,14.83
1885.0,14.58
1886.0,14.33
1887.0,14.20
1888.0,14.07
1889.0,13.93
1890.0,13.80
1891.0,13.67
1892.0,13.53
1893.0,13.40
1894.0,13.26
1895.0,13.13
1896.0,12.99
1897.0,12.55
1898.0,12.11
1899.0,11.66
1900.0,11.21
1901.0,10.75
1902.0,10.29
1903.0,9.82
1904.0,9.35
1905.0,8.87
1906.0,8.39
1907.0,8.39
1908.0,8.38
1909.0,8.38
1910.0,8.38
1911.0,8.38
1912.0,8.38
1913.0,8.37
1914.0,8.37
1915.0,8.37
1916.0,8.37
1917.0,8.37
1918.0,8.37
1919.0,8.37
1920.0,8.37
1921.0,8.38
1922.0,8.38
1923.0,8.38
1924.0,8.38
1925.0,8.38
1926.0,8.38
1927.0,8.39
1928.0,8.40
1929.0,8.41
1930.0,8.41
1931.0,8.42
1932.0,8.43
1933.0,8.44
