Wavelength,Reflectance
/***,***/
346.0,42.29
347.0,40.86
348.0,38.68
349.0,37.00
350.0,35.49
351.0,34.10
352.0,32.93
353.0,32.22
354.0,32.06
355.0,31.08
356.0,30.18
357.0,29.75
358.0,29.22
359.0,28.56
360.0,27.62
361.0,27.07
362.0,26.78
363.0,26.79
364.0,26.17
365.0,24.96
366.0,24.92
367.0,24.50
368.0,23.36
369.0,22.15
370.0,21.25
371.0,21.00
372.0,20.54
373.0,20.07
374.0,19.82
375.0,19.53
376.0,19.24
377.0,19.06
378.0,18.76
379.0,18.40
380.0,17.91
381.0,17.34
382.0,16.70
383.0,16.15
384.0,15.76
385.0,15.59
386.0,15.25
387.0,14.97
388.0,14.94
389.0,14.95
390.0,14.93
391.0,14.70
392.0,14.62
393.0,14.60
394.0,14.71
395.0,14.74
396.0,14.73
397.0,14.88
398.0,14.89
399.0,14.77
400.0,14.24
401.0,13.83
402.0,13.61
403.0,13.47
404.0,13.27
405.0,12.97
406.0,12.94
407.0,12.92
408.0,12.87
409.0,12.83
410.0,12.84
411.0,12.96
412.0,13.07
413.0,13.19
414.0,13.32
415.0,13.33
416.0,13.30
417.0,13.28
418.0,13.37
419.0,13.49
420.0,13.42
421.0,13.43
422.0,13.46
423.0,13.37
424.0,13.31
425.0,13.28
426.0,13.13
427.0,12.98
428.0,12.85
429.0,12.82
430.0,12.81
431.0,12.80
432.0,12.80
433.0,12.77
434.0,12.71
435.0,12.73
436.0,12.76
437.0,12.79
438.0,12.84
439.0,12.90
440.0,12.98
441.0,13.09
442.0,13.16
443.0,13.19
444.0,13.33
445.0,13.49
446.0,13.70
447.0,13.89
448.0,14.08
449.0,14.29
450.0,14.44
451.0,14.57
452.0,14.72
453.0,14.82
454.0,14.91
455.0,15.00
456.0,15.08
457.0,15.17
458.0,15.28
459.0,15.35
460.0,15.41
461.0,15.47
462.0,15.52
463.0,15.57
464.0,15.64
465.0,15.71
466.0,15.77
467.0,15.80
468.0,15.82
469.0,15.86
470.0,15.92
471.0,16.02
472.0,16.17
473.0,16.40
474.0,16.50
475.0,16.54
476.0,16.55
477.0,16.52
478.0,16.49
479.0,16.48
480.0,16.51
481.0,16.54
482.0,16.58
483.0,16.59
484.0,16.65
485.0,16.77
486.0,16.90
487.0,17.06
488.0,17.25
489.0,17.43
490.0,17.64
491.0,17.89
492.0,18.20
493.0,18.52
494.0,18.86
495.0,19.22
496.0,19.64
497.0,20.09
498.0,20.56
499.0,21.07
500.0,21.61
501.0,22.20
502.0,22.86
503.0,23.56
504.0,24.24
505.0,24.97
506.0,25.73
507.0,26.60
508.0,27.44
509.0,28.28
510.0,29.12
511.0,30.09
512.0,31.08
513.0,32.04
514.0,32.99
515.0,33.97
516.0,35.01
517.0,36.04
518.0,37.05
519.0,38.03
520.0,39.03
521.0,40.06
522.0,41.10
523.0,42.10
524.0,43.11
525.0,44.10
526.0,45.00
527.0,45.85
528.0,46.67
529.0,47.48
530.0,48.20
531.0,48.89
532.0,49.56
533.0,50.11
534.0,50.65
535.0,51.18
536.0,51.63
537.0,52.03
538.0,52.38
539.0,52.79
540.0,53.16
541.0,53.52
542.0,53.94
543.0,54.28
544.0,54.57
545.0,54.81
546.0,55.01
547.0,55.16
548.0,55.29
549.0,55.43
550.0,55.53
551.0,55.61
552.0,55.63
553.0,55.63
554.0,55.61
555.0,55.52
556.0,55.42
557.0,55.30
558.0,55.13
559.0,54.95
560.0,54.78
561.0,54.60
562.0,54.40
563.0,54.19
564.0,53.95
565.0,53.68
566.0,53.38
567.0,53.05
568.0,52.72
569.0,52.33
570.0,51.89
571.0,51.44
572.0,51.02
573.0,50.58
574.0,50.11
575.0,49.69
576.0,49.27
577.0,48.86
578.0,48.46
579.0,48.08
580.0,47.71
581.0,47.35
582.0,47.01
583.0,46.70
584.0,46.41
585.0,46.11
586.0,45.86
587.0,45.63
588.0,45.41
589.0,45.18
590.0,44.96
591.0,44.72
592.0,44.50
593.0,44.27
594.0,44.04
595.0,43.82
596.0,43.62
597.0,43.43
598.0,43.23
599.0,43.02
600.0,42.82
601.0,42.63
602.0,42.42
603.0,42.20
604.0,41.97
605.0,41.72
606.0,41.42
607.0,41.12
608.0,40.81
609.0,40.49
610.0,40.16
611.0,39.83
612.0,39.52
613.0,39.20
614.0,38.86
615.0,38.50
616.0,38.18
617.0,37.89
618.0,37.64
619.0,37.43
620.0,37.25
621.0,37.11
622.0,37.02
623.0,37.02
624.0,37.05
625.0,37.12
626.0,37.19
627.0,37.20
628.0,37.18
629.0,37.15
630.0,37.08
631.0,36.98
632.0,36.86
633.0,36.65
634.0,36.41
635.0,36.09
636.0,35.60
637.0,35.03
638.0,34.44
639.0,33.86
640.0,33.33
641.0,32.84
642.0,32.36
643.0,31.89
644.0,31.40
645.0,30.94
646.0,30.50
647.0,30.10
648.0,29.67
649.0,29.27
650.0,28.90
651.0,28.56
652.0,28.20
653.0,27.78
654.0,27.22
655.0,26.64
656.0,26.02
657.0,25.38
658.0,24.82
659.0,24.27
660.0,23.70
661.0,23.10
662.0,22.50
663.0,21.91
664.0,21.33
665.0,20.79
666.0,20.31
667.0,19.88
668.0,19.49
669.0,19.15
670.0,18.91
671.0,18.70
672.0,18.53
673.0,18.43
674.0,18.40
675.0,18.41
676.0,18.43
677.0,18.55
678.0,18.74
679.0,19.01
680.0,19.39
681.0,19.92
682.0,20.55
683.0,21.33
684.0,22.38
685.0,23.61
686.0,25.05
687.0,26.71
688.0,28.51
689.0,30.66
690.0,32.93
691.0,35.25
692.0,37.92
693.0,40.57
694.0,43.34
695.0,46.27
696.0,49.26
697.0,52.08
698.0,54.93
699.0,57.86
700.0,60.50
701.0,63.20
702.0,65.77
703.0,68.14
704.0,70.55
705.0,72.83
706.0,74.94
707.0,76.85
708.0,78.82
709.0,80.72
710.0,82.47
711.0,84.02
712.0,85.56
713.0,87.03
714.0,88.45
715.0,89.82
716.0,90.97
717.0,92.15
718.0,93.30
719.0,94.36
720.0,95.41
721.0,96.29
722.0,97.14
723.0,97.98
724.0,98.69
725.0,99.32
726.0,99.93
727.0,100.51
728.0,100.96
729.0,101.34
730.0,101.67
731.0,101.99
732.0,102.35
733.0,102.64
734.0,102.87
735.0,103.08
736.0,103.29
737.0,103.47
738.0,103.67
739.0,103.88
740.0,104.10
741.0,104.30
742.0,104.61
743.0,104.94
744.0,105.26
745.0,105.61
746.0,106.05
747.0,106.51
748.0,106.97
749.0,107.40
750.0,107.55
751.0,107.60
752.0,107.61
753.0,107.59
754.0,107.50
755.0,107.37
756.0,107.38
757.0,107.48
758.0,107.63
759.0,107.80
760.0,107.99
761.0,108.18
762.0,108.36
763.0,108.58
764.0,108.78
765.0,108.95
766.0,109.11
767.0,109.28
768.0,109.46
769.0,109.60
770.0,109.74
771.0,109.89
772.0,110.00
773.0,110.14
774.0,110.24
775.0,110.33
776.0,110.42
777.0,110.47
778.0,110.46
779.0,110.56
780.0,110.69
781.0,110.72
782.0,110.72
783.0,110.87
784.0,110.96
785.0,111.05
786.0,111.25
787.0,111.58
788.0,111.88
789.0,111.95
790.0,111.83
791.0,111.65
792.0,111.51
793.0,111.50
794.0,111.47
795.0,111.40
796.0,111.32
797.0,111.30
798.0,111.28
799.0,111.35
800.0,111.40
801.0,111.40
802.0,111.50
803.0,111.49
804.0,111.51
805.0,111.53
806.0,111.55
807.0,111.51
808.0,111.57
809.0,111.55
810.0,111.56
811.0,111.58
812.0,111.58
813.0,111.60
814.0,111.67
815.0,111.80
816.0,111.92
817.0,111.99
818.0,112.02
819.0,111.99
820.0,111.96
821.0,111.90
822.0,111.85
823.0,111.82
824.0,111.79
825.0,111.76
826.0,111.65
827.0,111.59
828.0,111.50
829.0,111.37
830.0,111.30
831.0,111.19
832.0,111.12
833.0,111.09
834.0,111.09
835.0,111.11
836.0,111.12
837.0,111.22
838.0,111.25
839.0,111.30
840.0,111.38
841.0,111.49
842.0,111.60
843.0,111.69
844.0,111.80
845.0,111.97
846.0,112.06
847.0,112.16
848.0,112.28
849.0,112.36
850.0,112.40
851.0,112.51
852.0,112.45
853.0,112.47
854.0,112.50
855.0,112.53
856.0,112.54
857.0,112.53
858.0,112.57
859.0,112.48
860.0,112.56
861.0,112.55
862.0,112.51
863.0,112.49
864.0,112.48
865.0,112.50
866.0,112.55
867.0,112.50
868.0,112.43
869.0,112.41
870.0,112.32
871.0,112.21
872.0,112.11
873.0,112.04
874.0,112.00
875.0,111.91
876.0,111.79
877.0,111.70
878.0,111.65
879.0,111.60
880.0,111.53
881.0,111.43
882.0,111.27
883.0,111.11
884.0,111.06
885.0,110.82
886.0,110.68
887.0,110.45
888.0,110.28
889.0,110.07
890.0,109.90
891.0,109.77
892.0,109.60
893.0,109.42
894.0,109.26
895.0,109.12
896.0,108.87
897.0,108.93
898.0,108.89
899.0,108.69
900.0,108.47
901.0,108.31
902.0,108.18
903.0,108.02
904.0,107.86
905.0,107.69
906.0,107.56
907.0,107.47
908.0,107.19
909.0,107.09
910.0,106.97
911.0,106.78
912.0,106.68
913.0,106.51
914.0,106.22
915.0,105.93
916.0,105.85
917.0,105.70
918.0,105.44
919.0,105.13
920.0,104.84
921.0,104.57
922.0,104.30
923.0,103.97
924.0,103.59
925.0,103.24
926.0,102.93
927.0,102.70
928.0,102.39
929.0,101.94
930.0,101.40
931.0,101.04
932.0,100.64
933.0,100.24
934.0,99.77
935.0,99.38
936.0,98.90
937.0,98.50
938.0,98.06
939.0,97.79
940.0,97.34
941.0,96.92
942.0,96.44
943.0,96.00
944.0,95.64
945.0,95.24
946.0,94.72
947.0,94.13
948.0,93.63
949.0,93.06
950.0,92.49
951.0,92.02
952.0,91.36
953.0,90.89
954.0,90.30
955.0,89.79
956.0,89.32
957.0,88.79
958.0,88.66
959.0,88.23
960.0,88.04
961.0,87.80
962.0,87.57
963.0,87.60
964.0,87.48
965.0,87.44
966.0,87.31
967.0,87.30
968.0,87.13
969.0,87.25
970.0,87.48
971.0,87.30
972.0,87.28
973.0,87.31
974.0,87.26
975.0,87.38
976.0,87.58
977.0,87.48
978.0,87.71
979.0,87.95
980.0,86.96
981.0,83.16
982.0,81.74
983.0,81.90
984.0,82.05
985.0,82.20
986.0,82.33
987.0,82.46
988.0,82.59
989.0,82.71
990.0,82.81
991.0,82.90
992.0,82.99
993.0,83.08
994.0,83.16
995.0,83.25
996.0,83.34
997.0,83.42
998.0,83.56
999.0,83.72
1000.0,83.87
1001.0,84.03
1002.0,84.23
1003.0,84.46
1004.0,84.68
1005.0,84.90
1006.0,85.15
1007.0,85.40
1008.0,85.65
1009.0,85.91
1010.0,86.15
1011.0,86.40
1012.0,86.65
1013.0,86.89
1014.0,87.16
1015.0,87.42
1016.0,87.68
1017.0,87.94
1018.0,88.20
1019.0,88.46
1020.0,88.73
1021.0,88.99
1022.0,89.22
1023.0,89.46
1024.0,89.69
1025.0,89.92
1026.0,90.16
1027.0,90.40
1028.0,90.65
1029.0,90.89
1030.0,91.13
1031.0,91.37
1032.0,91.61
1033.0,91.85
1034.0,92.08
1035.0,92.31
1036.0,92.53
1037.0,92.76
1038.0,92.99
1039.0,93.22
1040.0,93.46
1041.0,93.69
1042.0,93.93
1043.0,94.17
1044.0,94.42
1045.0,94.65
1046.0,94.87
1047.0,95.09
1048.0,95.31
1049.0,95.53
1050.0,95.72
1051.0,95.91
1052.0,96.10
1053.0,96.29
1054.0,96.45
1055.0,96.62
1056.0,96.78
1057.0,96.94
1058.0,97.07
1059.0,97.20
1060.0,97.33
1061.0,97.45
1062.0,97.54
1063.0,97.64
1064.0,97.73
1065.0,97.81
1066.0,97.88
1067.0,97.94
1068.0,98.01
1069.0,98.06
1070.0,98.10
1071.0,98.14
1072.0,98.17
1073.0,98.19
1074.0,98.18
1075.0,98.17
1076.0,98.17
1077.0,98.15
1078.0,98.11
1079.0,98.07
1080.0,98.04
1081.0,97.99
1082.0,97.93
1083.0,97.87
1084.0,97.81
1085.0,97.72
1086.0,97.61
1087.0,97.50
1088.0,97.39
1089.0,97.27
1090.0,97.13
1091.0,97.00
1092.0,96.87
1093.0,96.73
1094.0,96.58
1095.0,96.43
1096.0,96.29
1097.0,96.14
1098.0,95.99
1099.0,95.85
1100.0,95.70
1101.0,95.53
1102.0,95.36
1103.0,95.19
1104.0,95.02
1105.0,94.85
1106.0,94.68
1107.0,94.50
1108.0,94.33
1109.0,94.14
1110.0,93.95
1111.0,93.77
1112.0,93.58
1113.0,93.37
1114.0,93.15
1115.0,92.94
1116.0,92.73
1117.0,92.47
1118.0,92.22
1119.0,91.96
1120.0,91.70
1121.0,91.37
1122.0,91.04
1123.0,90.72
1124.0,90.38
1125.0,89.92
1126.0,89.46
1127.0,88.99
1128.0,88.51
1129.0,87.91
1130.0,87.32
1131.0,86.73
1132.0,86.10
1133.0,85.38
1134.0,84.65
1135.0,83.92
1136.0,83.17
1137.0,82.38
1138.0,81.60
1139.0,80.81
1140.0,80.05
1141.0,79.31
1142.0,78.58
1143.0,77.85
1144.0,77.15
1145.0,76.50
1146.0,75.84
1147.0,75.19
1148.0,74.61
1149.0,74.11
1150.0,73.60
1151.0,73.10
1152.0,72.70
1153.0,72.36
1154.0,72.02
1155.0,71.69
1156.0,71.42
1157.0,71.20
1158.0,70.97
1159.0,70.75
1160.0,70.58
1161.0,70.43
1162.0,70.29
1163.0,70.14
1164.0,70.04
1165.0,69.96
1166.0,69.88
1167.0,69.79
1168.0,69.73
1169.0,69.67
1170.0,69.61
1171.0,69.55
1172.0,69.49
1173.0,69.44
1174.0,69.39
1175.0,69.33
1176.0,69.29
1177.0,69.24
1178.0,69.19
1179.0,69.14
1180.0,69.08
1181.0,69.02
1182.0,68.96
1183.0,68.90
1184.0,68.85
1185.0,68.79
1186.0,68.74
1187.0,68.68
1188.0,68.63
1189.0,68.59
1190.0,68.54
1191.0,68.50
1192.0,68.46
1193.0,68.43
1194.0,68.40
1195.0,68.38
1196.0,68.37
1197.0,68.36
1198.0,68.35
1199.0,68.35
1200.0,68.35
1201.0,68.35
1202.0,68.35
1203.0,68.37
1204.0,68.39
1205.0,68.42
1206.0,68.45
1207.0,68.48
1208.0,68.53
1209.0,68.58
1210.0,68.63
1211.0,68.68
1212.0,68.75
1213.0,68.81
1214.0,68.87
1215.0,68.94
1216.0,69.02
1217.0,69.10
1218.0,69.17
1219.0,69.26
1220.0,69.34
1221.0,69.43
1222.0,69.52
1223.0,69.61
1224.0,69.69
1225.0,69.78
1226.0,69.87
1227.0,69.95
1228.0,70.04
1229.0,70.12
1230.0,70.20
1231.0,70.28
1232.0,70.36
1233.0,70.44
1234.0,70.52
1235.0,70.58
1236.0,70.65
1237.0,70.71
1238.0,70.78
1239.0,70.84
1240.0,70.90
1241.0,70.97
1242.0,71.03
1243.0,71.10
1244.0,71.17
1245.0,71.23
1246.0,71.30
1247.0,71.36
1248.0,71.42
1249.0,71.47
1250.0,71.53
1251.0,71.57
1252.0,71.62
1253.0,71.67
1254.0,71.71
1255.0,71.74
1256.0,71.78
1257.0,71.82
1258.0,71.85
1259.0,71.87
1260.0,71.90
1261.0,71.92
1262.0,71.93
1263.0,71.94
1264.0,71.94
1265.0,71.95
1266.0,71.94
1267.0,71.92
1268.0,71.91
1269.0,71.90
1270.0,71.88
1271.0,71.86
1272.0,71.85
1273.0,71.83
1274.0,71.80
1275.0,71.77
1276.0,71.74
1277.0,71.70
1278.0,71.65
1279.0,71.59
1280.0,71.54
1281.0,71.48
1282.0,71.40
1283.0,71.32
1284.0,71.25
1285.0,71.16
1286.0,71.06
1287.0,70.96
1288.0,70.86
1289.0,70.74
1290.0,70.62
1291.0,70.50
1292.0,70.37
1293.0,70.23
1294.0,70.08
1295.0,69.93
1296.0,69.78
1297.0,69.61
1298.0,69.44
1299.0,69.26
1300.0,69.08
1301.0,68.87
1302.0,68.66
1303.0,68.44
1304.0,68.22
1305.0,67.98
1306.0,67.74
1307.0,67.51
1308.0,67.26
1309.0,67.00
1310.0,66.74
1311.0,66.47
1312.0,66.20
1313.0,65.91
1314.0,65.62
1315.0,65.33
1316.0,65.03
1317.0,64.73
1318.0,64.42
1319.0,64.11
1320.0,63.79
1321.0,63.45
1322.0,63.12
1323.0,62.78
1324.0,62.45
1325.0,62.11
1326.0,61.77
1327.0,61.43
1328.0,61.09
1329.0,60.75
1330.0,60.40
1331.0,60.05
1332.0,59.72
1333.0,59.38
1334.0,59.05
1335.0,58.71
1336.0,58.38
1337.0,58.04
1338.0,57.70
1339.0,57.37
1340.0,57.05
1341.0,56.73
1342.0,56.41
1343.0,56.09
1344.0,55.76
1345.0,55.43
1346.0,55.10
1347.0,54.78
1348.0,54.47
1349.0,54.15
1350.0,53.84
1351.0,53.53
1352.0,53.24
1353.0,52.94
1354.0,52.65
1355.0,52.36
1356.0,52.09
1357.0,51.81
1358.0,51.53
1359.0,51.28
1360.0,51.04
1361.0,50.80
1362.0,50.55
1363.0,50.29
1364.0,50.02
1365.0,49.75
1366.0,49.47
1367.0,49.16
1368.0,48.84
1369.0,48.52
1370.0,48.17
1371.0,47.74
1372.0,47.31
1373.0,46.88
1374.0,46.40
1375.0,45.87
1376.0,45.34
1377.0,44.81
1378.0,44.22
1379.0,43.59
1380.0,42.96
1381.0,42.33
1382.0,41.67
1383.0,41.01
1384.0,40.35
1385.0,39.68
1386.0,39.01
1387.0,38.33
1388.0,37.64
1389.0,36.96
1390.0,36.26
1391.0,35.56
1392.0,34.86
1393.0,34.16
1394.0,33.50
1395.0,32.85
1396.0,32.19
1397.0,31.57
1398.0,31.01
1399.0,30.46
1400.0,29.90
1401.0,29.38
1402.0,28.91
1403.0,28.43
1404.0,27.95
1405.0,27.54
1406.0,27.16
1407.0,26.79
1408.0,26.41
1409.0,26.09
1410.0,25.78
1411.0,25.47
1412.0,25.16
1413.0,24.93
1414.0,24.69
1415.0,24.46
1416.0,24.23
1417.0,24.06
1418.0,23.88
1419.0,23.70
1420.0,23.54
1421.0,23.40
1422.0,23.27
1423.0,23.13
1424.0,23.01
1425.0,22.91
1426.0,22.81
1427.0,22.70
1428.0,22.62
1429.0,22.55
1430.0,22.48
1431.0,22.40
1432.0,22.35
1433.0,22.30
1434.0,22.24
1435.0,22.19
1436.0,22.16
1437.0,22.12
1438.0,22.09
1439.0,22.05
1440.0,22.03
1441.0,22.01
1442.0,21.99
1443.0,21.98
1444.0,21.96
1445.0,21.95
1446.0,21.94
1447.0,21.93
1448.0,21.93
1449.0,21.93
1450.0,21.92
1451.0,21.93
1452.0,21.94
1453.0,21.94
1454.0,21.95
1455.0,21.97
1456.0,21.98
1457.0,22.00
1458.0,22.02
1459.0,22.05
1460.0,22.09
1461.0,22.12
1462.0,22.16
1463.0,22.21
1464.0,22.26
1465.0,22.31
1466.0,22.37
1467.0,22.43
1468.0,22.50
1469.0,22.57
1470.0,22.65
1471.0,22.74
1472.0,22.83
1473.0,22.92
1474.0,23.02
1475.0,23.13
1476.0,23.23
1477.0,23.34
1478.0,23.46
1479.0,23.59
1480.0,23.71
1481.0,23.84
1482.0,23.98
1483.0,24.12
1484.0,24.26
1485.0,24.41
1486.0,24.57
1487.0,24.72
1488.0,24.88
1489.0,25.04
1490.0,25.21
1491.0,25.38
1492.0,25.55
1493.0,25.71
1494.0,25.87
1495.0,26.03
1496.0,26.19
1497.0,26.34
1498.0,26.48
1499.0,26.62
1500.0,26.76
1501.0,26.88
1502.0,27.01
1503.0,27.13
1504.0,27.25
1505.0,27.36
1506.0,27.48
1507.0,27.59
1508.0,27.71
1509.0,27.82
1510.0,27.93
1511.0,28.04
1512.0,28.15
1513.0,28.25
1514.0,28.36
1515.0,28.46
1516.0,28.57
1517.0,28.67
1518.0,28.78
1519.0,28.88
1520.0,28.97
1521.0,29.07
1522.0,29.16
1523.0,29.27
1524.0,29.39
1525.0,29.51
1526.0,29.62
1527.0,29.78
1528.0,29.94
1529.0,30.10
1530.0,30.26
1531.0,30.43
1532.0,30.60
1533.0,30.77
1534.0,30.93
1535.0,31.09
1536.0,31.25
1537.0,31.42
1538.0,31.56
1539.0,31.70
1540.0,31.84
1541.0,31.99
1542.0,32.13
1543.0,32.27
1544.0,32.41
1545.0,32.56
1546.0,32.70
1547.0,32.84
1548.0,32.98
1549.0,33.12
1550.0,33.24
1551.0,33.37
1552.0,33.50
1553.0,33.62
1554.0,33.74
1555.0,33.85
1556.0,33.97
1557.0,34.08
1558.0,34.19
1559.0,34.30
1560.0,34.41
1561.0,34.54
1562.0,34.67
1563.0,34.79
1564.0,34.92
1565.0,35.06
1566.0,35.19
1567.0,35.33
1568.0,35.46
1569.0,35.59
1570.0,35.72
1571.0,35.85
1572.0,35.99
1573.0,36.13
1574.0,36.27
1575.0,36.41
1576.0,36.53
1577.0,36.66
1578.0,36.78
1579.0,36.90
1580.0,36.99
1581.0,37.08
1582.0,37.17
1583.0,37.27
1584.0,37.36
1585.0,37.45
1586.0,37.54
1587.0,37.63
1588.0,37.72
1589.0,37.81
1590.0,37.90
1591.0,37.99
1592.0,38.07
1593.0,38.16
1594.0,38.25
1595.0,38.34
1596.0,38.43
1597.0,38.52
1598.0,38.60
1599.0,38.68
1600.0,38.76
1601.0,38.84
1602.0,38.92
1603.0,39.00
1604.0,39.08
1605.0,39.16
1606.0,39.25
1607.0,39.33
1608.0,39.41
1609.0,39.50
1610.0,39.58
1611.0,39.66
1612.0,39.74
1613.0,39.82
1614.0,39.90
1615.0,39.98
1616.0,40.06
1617.0,40.14
1618.0,40.22
1619.0,40.30
1620.0,40.38
1621.0,40.45
1622.0,40.53
1623.0,40.60
1624.0,40.66
1625.0,40.73
1626.0,40.79
1627.0,40.86
1628.0,40.93
1629.0,41.00
1630.0,41.07
1631.0,41.14
1632.0,41.21
1633.0,41.27
1634.0,41.34
1635.0,41.39
1636.0,41.44
1637.0,41.48
1638.0,41.53
1639.0,41.57
1640.0,41.61
1641.0,41.65
1642.0,41.69
1643.0,41.73
1644.0,41.77
1645.0,41.81
1646.0,41.84
1647.0,41.88
1648.0,41.91
1649.0,41.94
1650.0,41.97
1651.0,41.99
1652.0,42.01
1653.0,42.04
1654.0,42.06
1655.0,42.08
1656.0,42.10
1657.0,42.12
1658.0,42.14
1659.0,42.16
1660.0,42.18
1661.0,42.19
1662.0,42.21
1663.0,42.23
1664.0,42.25
1665.0,42.27
1666.0,42.29
1667.0,42.32
1668.0,42.33
1669.0,42.34
1670.0,42.34
1671.0,42.35
1672.0,42.34
1673.0,42.34
1674.0,42.33
1675.0,42.32
1676.0,42.29
1677.0,42.27
1678.0,42.24
1679.0,42.21
1680.0,42.16
1681.0,42.12
1682.0,42.07
1683.0,42.02
1684.0,41.98
1685.0,41.93
1686.0,41.89
1687.0,41.84
1688.0,41.79
1689.0,41.74
1690.0,41.68
1691.0,41.63
1692.0,41.57
1693.0,41.51
1694.0,41.45
1695.0,41.40
1696.0,41.34
1697.0,41.27
1698.0,41.20
1699.0,41.13
1700.0,41.06
1701.0,40.99
1702.0,40.91
1703.0,40.83
1704.0,40.75
1705.0,40.67
1706.0,40.59
1707.0,40.51
1708.0,40.42
1709.0,40.33
1710.0,40.24
1711.0,40.14
1712.0,40.05
1713.0,39.96
1714.0,39.87
1715.0,39.78
1716.0,39.68
1717.0,39.59
1718.0,39.49
1719.0,39.40
1720.0,39.30
1721.0,39.21
1722.0,39.11
1723.0,39.02
1724.0,38.92
1725.0,38.83
1726.0,38.74
1727.0,38.66
1728.0,38.58
1729.0,38.51
1730.0,38.45
1731.0,38.40
1732.0,38.36
1733.0,38.31
1734.0,38.28
1735.0,38.24
1736.0,38.21
1737.0,38.17
1738.0,38.13
1739.0,38.08
1740.0,38.04
1741.0,37.98
1742.0,37.92
1743.0,37.85
1744.0,37.78
1745.0,37.70
1746.0,37.61
1747.0,37.52
1748.0,37.43
1749.0,37.34
1750.0,37.24
1751.0,37.15
1752.0,37.05
1753.0,36.96
1754.0,36.86
1755.0,36.77
1756.0,36.68
1757.0,36.60
1758.0,36.52
1759.0,36.44
1760.0,36.36
1761.0,36.29
1762.0,36.21
1763.0,36.15
1764.0,36.08
1765.0,36.02
1766.0,35.96
1767.0,35.92
1768.0,35.87
1769.0,35.83
1770.0,35.79
1771.0,35.75
1772.0,35.71
1773.0,35.67
1774.0,35.64
1775.0,35.60
1776.0,35.56
1777.0,35.53
1778.0,35.49
1779.0,35.45
1780.0,35.41
1781.0,35.38
1782.0,35.36
1783.0,35.33
1784.0,35.30
1785.0,35.28
1786.0,35.25
1787.0,35.22
1788.0,35.20
1789.0,35.18
1790.0,35.16
1791.0,35.15
1792.0,35.14
1793.0,35.13
1794.0,35.12
1795.0,35.12
1796.0,35.11
1797.0,35.11
1798.0,35.11
1799.0,35.11
1800.0,35.11
1801.0,35.11
1802.0,35.11
1803.0,35.10
1804.0,35.10
1805.0,35.09
1806.0,35.09
1807.0,35.10
1808.0,35.10
1809.0,35.09
1810.0,35.07
1811.0,35.06
1812.0,35.05
1813.0,35.03
1814.0,35.02
1815.0,35.01
1816.0,35.00
1817.0,35.00
1818.0,35.00
1819.0,35.01
1820.0,35.00
1821.0,35.00
1822.0,35.00
1823.0,34.99
1824.0,34.98
1825.0,34.96
1826.0,34.95
1827.0,34.92
1828.0,34.89
1829.0,34.85
1830.0,34.82
1831.0,34.78
1832.0,34.74
1833.0,34.70
1834.0,34.67
1835.0,34.63
1836.0,34.60
1837.0,34.57
1838.0,34.56
1839.0,34.54
1840.0,34.52
1841.0,34.48
1842.0,34.44
1843.0,34.40
1844.0,34.36
1845.0,34.32
1846.0,34.27
1847.0,34.23
1848.0,34.18
1849.0,34.13
1850.0,34.08
1851.0,34.02
1852.0,33.91
1853.0,33.80
1854.0,33.69
1855.0,33.53
1856.0,33.35
1857.0,33.16
1858.0,32.95
1859.0,32.65
1860.0,32.34
1861.0,32.04
1862.0,31.65
1863.0,31.22
1864.0,30.79
1865.0,30.35
1866.0,29.88
1867.0,29.40
1868.0,28.93
1869.0,28.46
1870.0,27.98
1871.0,27.51
1872.0,27.03
1873.0,26.54
1874.0,26.04
1875.0,25.55
1876.0,25.05
1877.0,24.55
1878.0,24.05
1879.0,23.55
1880.0,23.06
1881.0,22.56
1882.0,22.07
1883.0,21.61
1884.0,21.16
1885.0,20.70
1886.0,20.26
1887.0,19.88
1888.0,19.50
1889.0,19.11
1890.0,18.80
1891.0,18.52
1892.0,18.24
1893.0,17.98
1894.0,17.80
1895.0,17.62
1896.0,17.43
1897.0,17.35
1898.0,17.29
1899.0,17.23
1900.0,16.46
1901.0,13.93
1902.0,12.05
1903.0,11.93
1904.0,11.81
1905.0,11.74
1906.0,11.72
1907.0,11.71
1908.0,11.69
1909.0,11.67
1910.0,11.65
1911.0,11.63
1912.0,11.60
1913.0,11.59
1914.0,11.59
1915.0,11.60
