WAVELENGTH,PC1,PC2
346,-0.22009621414541802,-0.10408141029377306
347,-0.3343031759358787,-0.08015200898405166
348,-0.5011167890546495,-0.0508928321252044
349,-0.6787826446251546,-0.055821858662389236
350,-0.8222120390661768,-0.047614960523614316
351,-0.9390688913017512,-0.02735376685041918
352,-1.0276838815800258,-0.03859466337079439
353,-1.0867123906991225,-0.045484480602589826
354,-1.11267253494103,-0.04229419175432237
355,-1.1876846755614219,-0.04258854519576446
356,-1.2532704512694393,-0.04535951240806021
357,-1.2823730840724754,-0.0523676513428436
358,-1.308544874524991,-0.049019508588366796
359,-1.3433273276930795,-0.04510117286424538
360,-1.4146225832195887,-0.052168625160055236
361,-1.4757025190660855,-0.054880715303323876
362,-1.5302380404533034,-0.05345135334841324
363,-1.5782259118685997,-0.042446375450350085
364,-1.6239413317981608,-0.04164930956307103
365,-1.6670741851461726,-0.049981414656569384
366,-1.7114630572343177,-0.04013071770976071
367,-1.7673018568864558,-0.03196224329566665
368,-1.8340768703023904,-0.030726221963656288
369,-1.921567253935071,-0.038051697279778134
370,-1.991071929127421,-0.040878629018743076
371,-2.019486337012862,-0.030083584167116293
372,-2.0562647161625804,-0.03599603852643711
373,-2.092492815491191,-0.04443612052963153
374,-2.1171369225650016,-0.03788123261865201
375,-2.137315577469919,-0.038695485039780424
376,-2.156657334847021,-0.04242159166057639
377,-2.193585265116473,-0.03768539453457646
378,-2.224643248666821,-0.03908246494851153
379,-2.25154105485041,-0.0445754408809391
380,-2.282386675160859,-0.04418174263645403
381,-2.3175784599870908,-0.04249838018137711
382,-2.356503734977027,-0.039510939624470616
383,-2.3951915973708546,-0.03712548975591995
384,-2.4257796251391794,-0.03799065598371022
385,-2.44559751364246,-0.043369960924623426
386,-2.4670150711354517,-0.051073826430121774
387,-2.4819958500424426,-0.0566847891556922
388,-2.4895367030327713,-0.05515157481881313
389,-2.493000490685013,-0.05420620741172099
390,-2.4954679682196605,-0.055024812178065936
391,-2.4996509331869072,-0.06153054254739155
392,-2.5007596468198603,-0.06347901726858612
393,-2.500267641510333,-0.06382814064532712
394,-2.496989507267305,-0.06085028742025697
395,-2.481805804425456,-0.06436423286862404
396,-2.461216580542112,-0.07084023437632683
397,-2.4584275346485507,-0.06689640764763895
398,-2.471678601549464,-0.06536107236330004
399,-2.4998912704636926,-0.0658950359154348
400,-2.531263146294739,-0.07257643183019631
401,-2.561638692601262,-0.0762507200754269
402,-2.5906993631302333,-0.07556537907624926
403,-2.6082409417651595,-0.07713626713414037
404,-2.622794777056585,-0.0784357166546741
405,-2.6348775434678733,-0.07892231891508544
406,-2.641764905152941,-0.07590656615926702
407,-2.6444869949177137,-0.07470291985595641
408,-2.6450285323299765,-0.07673602561803118
409,-2.6442090599728396,-0.079368212946646
410,-2.6417000897063208,-0.0801136705589959
411,-2.635489157319525,-0.07667272533677391
412,-2.625847799327272,-0.07667207227924705
413,-2.6159783122289775,-0.07849618031118444
414,-2.6098370341443786,-0.07911506239013416
415,-2.6063406465963426,-0.07917993777579894
416,-2.6049054473381403,-0.07881819793188274
417,-2.6069415314709543,-0.07651295634020659
418,-2.6057977990502277,-0.07543886967994401
419,-2.603921908988477,-0.07555203077940921
420,-2.607124886008791,-0.07515090599999773
421,-2.61070158376102,-0.07419922246420427
422,-2.6153919868108724,-0.07340002868886045
423,-2.625580288157737,-0.07412218434615643
424,-2.6333394042884115,-0.07319582673887108
425,-2.63841413715117,-0.07082555878869004
426,-2.6491759885297896,-0.07092576765200757
427,-2.6592310709007494,-0.06971830067134079
428,-2.6684852680011915,-0.06725089620346901
429,-2.6742413487918095,-0.06578074323547252
430,-2.6786387415938995,-0.06586491408530272
431,-2.681884990600253,-0.06761523428169319
432,-2.6838620658620456,-0.06702021572687554
433,-2.684505083559585,-0.06766338446139893
434,-2.6839718919469098,-0.06968879326212818
435,-2.6829662371091674,-0.0689061600314708
436,-2.681117097565138,-0.0685732800160579
437,-2.6770957553304346,-0.07074293770956296
438,-2.671431837265231,-0.07212494073397992
439,-2.6660904739817983,-0.07354226467500669
440,-2.6610644342977343,-0.07506510856391825
441,-2.651156808818067,-0.07662197693530162
442,-2.6413412920977777,-0.07936196621334249
443,-2.6320327469560976,-0.08355084249369998
444,-2.6199207338000474,-0.08742102052076345
445,-2.606431111137529,-0.09108953799264473
446,-2.5903323122343203,-0.09371580471700773
447,-2.573401548490308,-0.0979707897382795
448,-2.5559576972221025,-0.10236745423767062
449,-2.5377699375077176,-0.10528720969856058
450,-2.5252629198398573,-0.11191806562507066
451,-2.5147964753877754,-0.1183177677524002
452,-2.5045732788148793,-0.12298741917553142
453,-2.495264068409494,-0.12567725559037676
454,-2.4861992100334485,-0.1290400777362643
455,-2.4762521518211966,-0.13316354721377863
456,-2.466135502942674,-0.1368410230892347
457,-2.4557533887846734,-0.140245649267225
458,-2.445890640550684,-0.1430212864992702
459,-2.4364141644258943,-0.14543910209559074
460,-2.4274594643730185,-0.14799825173135867
461,-2.4203551295549173,-0.1500223197684287
462,-2.4139847151643297,-0.15192379950029408
463,-2.4074592528825653,-0.15323572328776358
464,-2.4007894542861736,-0.15372215049290838
465,-2.3955963149992545,-0.1544296367700372
466,-2.3903880874500887,-0.15550019244468255
467,-2.3844720315988424,-0.1566734155792762
468,-2.377956733014363,-0.15806861860388247
469,-2.371089835477079,-0.15921556661746314
470,-2.3626395170740477,-0.15911534382862078
471,-2.3494373966012447,-0.15956670109895227
472,-2.3359860860186115,-0.1592473569004122
473,-2.3249082188726127,-0.1578828955159589
474,-2.325259578762929,-0.16068461812756293
475,-2.328054911034688,-0.1659383879658858
476,-2.330769293983953,-0.17186983854992177
477,-2.328642618621816,-0.17438321683612798
478,-2.3261603055639823,-0.1761914626007792
479,-2.3230421931420993,-0.1780710954836642
480,-2.318472182303136,-0.178523132138166
481,-2.3139028990396695,-0.17902406683442892
482,-2.309263263500753,-0.18007541805409527
483,-2.3037734708344995,-0.18189196618548487
484,-2.296213316042991,-0.18380691256328355
485,-2.2856885509518383,-0.18581405609989105
486,-2.2747719158877358,-0.18869955298927935
487,-2.258485992048995,-0.19303137265634526
488,-2.239526478383453,-0.1981394532781265
489,-2.218831668456183,-0.20463751134225192
490,-2.1961390208774993,-0.2106093445064175
491,-2.1719721963257332,-0.21596565010200594
492,-2.143117287910471,-0.22216401105075803
493,-2.1135497824307827,-0.2286737415933199
494,-2.0836732120175463,-0.23527913936292377
495,-2.04906731891507,-0.24326148415994847
496,-2.0118935906787794,-0.2508326332311328
497,-1.968851899964941,-0.2601218844598004
498,-1.9240209311793117,-0.27067630446951585
499,-1.8763493183313729,-0.28113407941588664
500,-1.826215560157223,-0.29159825474727286
501,-1.7731832712475937,-0.30116678849132417
502,-1.7150027727503514,-0.31197455934258644
503,-1.6540031462286653,-0.3230173961703951
504,-1.5931858401898513,-0.33344010311783134
505,-1.5304453889362133,-0.3438031833282067
506,-1.4661002215786498,-0.3542978855407434
507,-1.3910366337607152,-0.36580733255073733
508,-1.3170251703851388,-0.3762668098311376
509,-1.2430934195759553,-0.3861341458902709
510,-1.169274258469977,-0.3954332381452888
511,-1.0882984493429568,-0.4050908577179926
512,-1.0079881595897735,-0.41395744751800606
513,-0.9307204685959386,-0.42177151008371816
514,-0.852637317434344,-0.42865037857566907
515,-0.7728462877945579,-0.4359055336046107
516,-0.6903760633438943,-0.44328276163578756
517,-0.6055191429095493,-0.4493949705503228
518,-0.522394729266629,-0.45532092749001263
519,-0.44118945490289635,-0.46047129307995976
520,-0.35828464433835144,-0.46572558840302203
521,-0.2734038739478163,-0.470936418567785
522,-0.18735199024497304,-0.4756486088263836
523,-0.10648155742188396,-0.47950496135135795
524,-0.024768510770504674,-0.4838029883239001
525,0.055352887367559375,-0.48793744384266075
526,0.12947256420095396,-0.49105444066304005
527,0.1981818810467643,-0.49451052245921945
528,0.2651792780715498,-0.49769026342381806
529,0.33082622531046973,-0.5002705482600858
530,0.39031081383100197,-0.502591923927606
531,0.44766987354016224,-0.5051420308702954
532,0.5047181857302463,-0.5090547931822853
533,0.5524449573638429,-0.5116023012039177
534,0.599064754342315,-0.5145123969880897
535,0.6452115329123669,-0.5168957932877607
536,0.6859347529470801,-0.5210722333425124
537,0.7214964580749524,-0.5236035810097739
538,0.7545383520031329,-0.5252170209715343
539,0.7915512779251209,-0.528124639593345
540,0.8250224405969923,-0.5305013960234933
541,0.8562561758109659,-0.5329637489989111
542,0.889717212147805,-0.537022774019253
543,0.9169511491308858,-0.5411179325487768
544,0.9409973387501978,-0.5446037313255425
545,0.9638615321646594,-0.547985012370729
546,0.984807593372348,-0.5493136128527474
547,1.0004624301090674,-0.5493432170866299
548,1.0130770743352537,-0.549505492821341
549,1.0269419507018682,-0.5484010646254533
550,1.037602010051756,-0.5479627012038144
551,1.0456231371531897,-0.5476620169072333
552,1.0503205747731248,-0.5476028098135703
553,1.0532828463269492,-0.5472242408522896
554,1.0544642406618843,-0.5471054906371262
555,1.0516738754148325,-0.5473683408600681
556,1.0483404582749805,-0.5482983151672725
557,1.04069162032109,-0.5487501798596995
558,1.0295745141129786,-0.5492383515566238
559,1.0186523672084746,-0.5510734137995635
560,1.0073153098767162,-0.5531700893597452
561,0.9948227320771934,-0.5553023887076326
562,0.9830032944271306,-0.5581978893628592
563,0.9703540769784119,-0.5619253342677877
564,0.9567074579171888,-0.5663256904361877
565,0.9399510129059734,-0.570584411023913
566,0.921190932649873,-0.5749436348338887
567,0.8989063353791363,-0.5792221076920433
568,0.8760339410530331,-0.5829590575820923
569,0.8483963625196171,-0.587037477639409
570,0.8186940113834886,-0.5908485058650785
571,0.7873977834703473,-0.5944407304027531
572,0.7576783560252558,-0.5980275360016168
573,0.7272809631509732,-0.6008189149113042
574,0.6946553145300516,-0.6035983999451701
575,0.6640054657506439,-0.6057883758103937
576,0.6342383435203991,-0.6081904686251285
577,0.605098853796484,-0.6102504205598624
578,0.5764879408844895,-0.6121811883988124
579,0.548105754532372,-0.6133681210053322
580,0.5209052242016234,-0.6141289607011746
581,0.49377605975822986,-0.6154854439265878
582,0.46997372491683814,-0.616260270816719
583,0.44673926285096577,-0.616902742102201
584,0.4236967759360823,-0.618100734912459
585,0.4012624694968599,-0.6185137785001665
586,0.38059226931223733,-0.6195849256063626
587,0.36186716415220954,-0.6207213275931572
588,0.3429933912422507,-0.6215463314710641
589,0.3241567598396209,-0.6221104738104675
590,0.3058186041036248,-0.6227906731327705
591,0.2880299995024944,-0.623206967633788
592,0.27006794720761296,-0.6220184988236196
593,0.2521129269603554,-0.62121688849248
594,0.2346941020599651,-0.6203116612280658
595,0.21919962872489482,-0.6190223937407738
596,0.2038005862840971,-0.6173905038229286
597,0.18837314516040177,-0.615613380801855
598,0.17205960124559466,-0.6143780794921512
599,0.15628759545739596,-0.6131826743332717
600,0.1404749440262515,-0.6120558565221765
601,0.1245133304943523,-0.6109259944931132
602,0.10729510631284063,-0.609859643517811
603,0.0897208112767819,-0.6089061132371126
604,0.0710064392149097,-0.6076152762897521
605,0.052081278843969056,-0.6063892012586042
606,0.029959628284828208,-0.6049598611164292
607,0.005748933622057756,-0.603178816469312
608,-0.017829500082492348,-0.601908247569814
609,-0.043061659347006905,-0.6002465814866108
610,-0.06778211275674033,-0.5988351010974382
611,-0.09263444971758945,-0.5975914034892428
612,-0.11702381088562566,-0.596761796181503
613,-0.14174007797794272,-0.5952341226975507
614,-0.16685240136062607,-0.5929442889555971
615,-0.193266087081308,-0.5900159048892978
616,-0.21703207343172426,-0.5882169892676166
617,-0.23819632663554022,-0.5870128064186203
618,-0.25709154406975426,-0.5867264340902528
619,-0.2740124860521035,-0.5877508124645165
620,-0.2880689611998833,-0.5890379994700695
621,-0.3007455422906007,-0.5892431104425041
622,-0.31425144477777534,-0.5867886303174612
623,-0.32472928090892544,-0.5814869826109982
624,-0.33291554102613813,-0.5758259100094795
625,-0.33843968083971826,-0.5694298968660898
626,-0.3411552114273403,-0.5621284917540805
627,-0.3420496079636422,-0.5559323448882154
628,-0.34284274141634646,-0.5503017445811917
629,-0.3433030915314019,-0.5450655926706909
630,-0.34651195113006394,-0.5408691346940648
631,-0.3507488329910849,-0.5382344423643022
632,-0.35627766479611755,-0.5367291878246073
633,-0.3673357340434028,-0.5355601241232669
634,-0.37969878599169443,-0.5358885623991568
635,-0.3955136900022078,-0.5373964087035006
636,-0.4177072546601326,-0.5387870360385962
637,-0.44838469855190355,-0.5389714919045676
638,-0.4799506517192811,-0.5387010487713519
639,-0.5130500155996354,-0.5386405963183486
640,-0.5510194296896165,-0.5385393492348959
641,-0.5933617095713629,-0.5394099138459933
642,-0.6378653861673566,-0.5398685046139862
643,-0.6840538229250448,-0.5390718395158982
644,-0.7337210707498486,-0.5364347224362062
645,-0.7815982675203429,-0.5332095696272253
646,-0.8284744694293025,-0.5300636568675396
647,-0.8766525815250428,-0.5281222218936317
648,-0.9293932819280661,-0.5277664522333936
649,-0.9800447046441341,-0.5297352936420118
650,-1.0291195105780775,-0.5331570622487247
651,-1.080723137346001,-0.5421078906577842
652,-1.1341508619755467,-0.5502158637173936
653,-1.1872366790909672,-0.5507531130249035
654,-1.2375061129331313,-0.5329086075427322
655,-1.2848939510303905,-0.5094913392412791
656,-1.3335488644813753,-0.48502956796783014
657,-1.38156277528768,-0.46167943646018067
658,-1.4254591726458943,-0.4417599298507987
659,-1.4712334624478507,-0.4248458196658233
660,-1.5198882684567454,-0.4088623184801529
661,-1.5726369308180743,-0.39329948753727834
662,-1.6251001191024315,-0.3773325304178728
663,-1.6778305571501948,-0.36138677204416914
664,-1.7297930909008423,-0.3454828446280478
665,-1.7804204125699334,-0.33044026642208324
666,-1.8251236006900338,-0.31787460246261606
667,-1.863461048938549,-0.30664808566350404
668,-1.8984394008066765,-0.2957103405629052
669,-1.9295443327868549,-0.28471160746977103
670,-1.953003452720005,-0.2760518661912916
671,-1.9740617246555794,-0.2683134881274408
672,-1.9922853924734887,-0.2611731320430744
673,-2.004869346229105,-0.2556655698499669
674,-2.012211188217649,-0.251377149519878
675,-2.015995498726356,-0.24792960995878946
676,-2.0167394280146627,-0.24649484684390127
677,-2.000176501970899,-0.24894570086097595
678,-1.9771667135105249,-0.25257812699583904
679,-1.947768094336973,-0.2573178531749344
680,-1.9087584280483392,-0.26401408729658615
681,-1.8571330087226905,-0.2747394812440069
682,-1.7954973436304138,-0.2877899686317613
683,-1.722387958504645,-0.3035583119418373
684,-1.6276093782961187,-0.3250117444799237
685,-1.5186743707800685,-0.34835800354172514
686,-1.3929186542917866,-0.37369411009153686
687,-1.2290113734926658,-0.4064559029144242
688,-1.0552374712849935,-0.4388163616125524
689,-0.8554897427910236,-0.47265098778970666
690,-0.6478625257389744,-0.5048226237812871
691,-0.43646560555707403,-0.5350228486643713
692,-0.2013924109154194,-0.561690532924224
693,0.03003304719159136,-0.5855868517254653
694,0.2673985949811352,-0.6063456567910982
695,0.5147856188523989,-0.622982910855126
696,0.7628923596170487,-0.6344149606762483
697,0.9966609716894368,-0.6407877430990739
698,1.2311868865513598,-0.6444387757288839
699,1.4699106410893517,-0.6455850949481041
700,1.6871519305422127,-0.6428845993217865
701,1.907473137264883,-0.6369257718594065
702,2.1182491291991954,-0.628841870593595
703,2.3142219704132354,-0.6191289423008218
704,2.511916913432286,-0.6043361920855688
705,2.701207078866089,-0.5904214481281382
706,2.8784839526649013,-0.5762732848989357
707,3.0314780706148023,-0.5586730331107843
708,3.1856157091476964,-0.540256794508441
709,3.3352051671252876,-0.5214587341574083
710,3.4735057874740543,-0.5025453597188398
711,3.597829041534331,-0.48337925941755605
712,3.720268897217564,-0.4635864385236048
713,3.8381600351382787,-0.44370401577709223
714,3.952068701900456,-0.4239672528307565
715,4.062491263925822,-0.4046496109251688
716,4.159733628627938,-0.3871326076797394
717,4.250802028445021,-0.36615376002759337
718,4.339169732874892,-0.344899356045862
719,4.423001412523176,-0.32398169881882766
720,4.506278534062264,-0.3030602476710069
721,4.577287690535957,-0.284093125312703
722,4.6461002753871385,-0.26605014074576405
723,4.715581714902087,-0.2495397416660306
724,4.772201976219369,-0.2341745455960798
725,4.824361399285868,-0.2201052360815154
726,4.874532132519305,-0.20628502001400717
727,4.915672354743441,-0.19057801838815433
728,4.949786237812413,-0.17550406276292965
729,4.977978528747626,-0.1625187762063962
730,5.003635374686587,-0.15057409243821632
731,5.028098125061521,-0.13928141664267962
732,5.055188279946471,-0.12895333988543783
733,5.076246753935386,-0.11983683831383699
734,5.094154847301737,-0.11057390729732841
735,5.110676521325542,-0.10183889774377002
736,5.126055103829671,-0.0939043482979127
737,5.13931093678378,-0.0890053552471246
738,5.1557382477761236,-0.08289889271522875
739,5.17364750651515,-0.07717082129740534
740,5.191803677443064,-0.07285009020499995
741,5.208650288730183,-0.06760220459500281
742,5.233050126756961,-0.06426964962866052
743,5.25936389746492,-0.06191088600325252
744,5.285645798122149,-0.06012783247542513
745,5.3132709106873675,-0.057909265706092256
746,5.349111406908869,-0.05540103547718876
747,5.387063921328271,-0.050762180883156725
748,5.426430417244274,-0.044031442711116725
749,5.465126176313546,-0.036218545076056465
750,5.48331808880344,-0.02488515942516145
751,5.492848625064844,-0.016463811299834572
752,5.497431382562026,-0.011144261275127985
753,5.498597751669241,-0.008529806417213303
754,5.493657518374241,-0.007708560637626837
755,5.483247383247633,-0.008457735083070201
756,5.4840736763367435,-0.00999217534878086
757,5.4941414549868055,-0.011443184594282764
758,5.507754160709483,-0.013646286298400943
759,5.522455144233642,-0.014490964938144684
760,5.538367702910612,-0.016049431526626586
761,5.5550633559151645,-0.0177165391902393
762,5.570388104342263,-0.01936730238745672
763,5.587869495356926,-0.01886513915446075
764,5.604270571282778,-0.018676694241744653
765,5.620191358945938,-0.018798572745536608
766,5.635925473155647,-0.017997704355974316
767,5.651483378616018,-0.017382103098814262
768,5.667861026269711,-0.01759684059798775
769,5.680489568331731,-0.017610144725819208
770,5.69397207211281,-0.01717785460694552
771,5.7075793256291645,-0.016487182508032897
772,5.717328332051131,-0.01724431464120619
773,5.7301404806104275,-0.01718154158722618
774,5.741938298024557,-0.016918418863241802
775,5.753876159252791,-0.015579192553688635
776,5.764639302923297,-0.01294046514688592
777,5.7719975721260335,-0.01122452067081582
778,5.775142960945338,-0.010360347907633906
779,5.786107749482416,-0.010021909634447532
780,5.7974942468164405,-0.010046970334035395
781,5.800537935507437,-0.010919379395753659
782,5.801254232485411,-0.012879693186539186
783,5.813526733083005,-0.012605795826863817
784,5.820987771101437,-0.012630937676880803
785,5.8288355726172965,-0.013711618627172
786,5.845183117488651,-0.015896415060247204
787,5.875355178668004,-0.01729699805641976
788,5.907181066442625,-0.009728415952811058
789,5.922789101379129,0.002360035558564247
790,5.922504813022976,0.014906810832016944
791,5.914203302009604,0.02343337659914591
792,5.904496103962909,0.023199418748755765
793,5.906697109721788,0.022473436050043313
794,5.908152515192026,0.02412458362566839
795,5.90732242783881,0.026365838273720858
796,5.906073534205339,0.028208999736544556
797,5.904995396311524,0.02787508449707062
798,5.907414215340812,0.027456474859844145
799,5.9166470188711795,0.029213050855697233
800,5.922579706526053,0.030737252016909987
